ch4,ch5,ch3
-0.001687,-0.006854,-0.001986
1.4e-05,-0.005077,-0.002067
0.000494,-0.003025,-0.002327
-0.001623,-0.002175,-0.000912
-0.003115,-0.003167,-0.000371
-0.002173,-0.003805,-0.003501
-0.002085,-0.005476,-0.004892
-0.002742,-0.008313,-0.002596
-0.002085,-0.009288,-0.001932
-0.002062,-0.009275,-0.005253
-0.003775,-0.010118,-0.006696
-0.005914,-0.011597,-0.005283
-0.007321,-0.013857,-0.004554
-0.007146,-0.015974,-0.004782
-0.006224,-0.017621,-0.00455
-0.004872,-0.017782,-0.00348
-0.003588,-0.017573,-0.001161
-0.002156,-0.017552,0.000984
-0.001056,-0.018644,0.000516
-0.001701,-0.019647,0.000888
-0.002733,-0.021549,0.001813
-0.003257,-0.022882,0.001353
-0.004155,-0.022539,-0.000655
-0.003407,-0.021826,-0.002279
-0.003196,-0.020886,-0.002321
-0.003504,-0.018624,-0.000936
-0.003681,-0.01758,0.000303
-0.002782,-0.017302,0.001062
-0.002473,-0.017572,0.001163
-0.002513,-0.016277,-0.000374
-0.001668,-0.015419,-0.001852
-0.000265,-0.01523,-0.001537
-0.000171,-0.015653,-0.001187
-0.000722,-0.015877,-0.000996
0.000735,-0.015556,-0.001018
0.000999,-0.014524,-0.001033
-0.000415,-0.012861,-0.000938
-0.002913,-0.01152,-0.000388
-0.004205,-0.011289,-0.000958
-0.003234,-0.010769,-0.001761
-0.002062,-0.008964,-0.001528
-0.002394,-0.00673,-0.001499
-0.002077,-0.006748,-0.002556
-0.00129,-0.008612,-0.002845
-0.001185,-0.009704,-0.002564
-0.000843,-0.010819,-0.003314
-0.001182,-0.013019,-0.004552
-0.001056,-0.014409,-0.004878
-5.4e-05,-0.014399,-0.005012
-8e-06,-0.012614,-0.004427
-0.002184,-0.010731,-0.002977
-0.003245,-0.010468,-0.002644
-0.002539,-0.011113,-0.003507
-0.002732,-0.010276,-0.004373
-0.002986,-0.009292,-0.00412
-0.001198,-0.009729,-0.004086
0.001053,-0.010503,-0.003687
0.000238,-0.011673,-0.003086
-0.001715,-0.012271,-0.00458
0.0005,-0.01221,-0.006868
0.002067,-0.014524,-0.007217
0.000606,-0.017417,-0.00684
0.000161,-0.018838,-0.005388
7.6e-05,-0.020326,-0.003788
-0.000298,-0.020677,-0.002991
-0.000645,-0.018986,-0.003324
-0.000846,-0.018936,-0.003799
0.000257,-0.020552,-0.002727
0.001559,-0.020633,-0.000409
0.000491,-0.017252,0.001217
-0.002189,-0.014272,0.002179
-0.002534,-0.013278,0.003107
-0.002198,-0.01201,0.002856
-0.002884,-0.010178,0.003569
-0.003789,-0.00981,0.004335
-0.003282,-0.011463,0.002282
-0.004212,-0.011396,-0.000821
-0.005815,-0.009308,-0.00217
-0.005568,-0.008599,-0.002194
-0.004222,-0.008119,-0.002332
-0.003062,-0.008224,-0.002343
-0.002263,-0.009154,-0.001329
-0.002133,-0.009135,-0.000379
-0.002181,-0.007297,-0.000417
-0.002325,-0.006062,-0.001085
-0.002814,-0.006767,-0.002713
-0.00202,-0.008259,-0.005042
0.000833,-0.006717,-0.005791
0.000449,-0.005343,-0.004831
-0.002365,-0.007139,-0.004854
-0.003994,-0.008311,-0.006101
-0.00353,-0.008604,-0.005706
-0.003817,-0.009025,-0.004803
-0.003941,-0.007821,-0.005297
-0.003192,-0.007115,-0.005984
-0.001966,-0.008744,-0.004918
-0.000266,-0.011214,-0.002019
0.002208,-0.014441,-0.00157
0.004032,-0.019159,-0.003476
0.001616,-0.022188,-0.004167
-0.000507,-0.021914,-0.002826
-0.000581,-0.018719,-0.00176
0.000105,-0.017046,-0.002526
-0.000426,-0.017646,-0.001989
-0.001286,-0.018995,-1.4e-05
-0.001307,-0.018592,0.000881
-0.001007,-0.016608,0.000742
-0.002029,-0.014762,0.001034
-0.003696,-0.014717,0.000324
-0.003491,-0.015146,-0.001807
-0.002147,-0.014262,-0.002529
-0.000849,-0.012904,-0.002364
0.002272,-0.01232,-0.003444
0.005535,-0.011555,-0.003852
0.0055,-0.010815,-0.00468
0.002489,-0.009135,-0.004138
0.000411,-0.008826,-0.002564
0.000422,-0.009089,-0.00106
-0.000722,-0.009379,-6.9e-05
-0.002646,-0.009246,-0.000755
-0.004205,-0.00814,-0.001517
-0.002058,-0.006866,0.000477
0.001453,-0.006792,0.002511
0.001481,-0.00785,0.002116
-0.000187,-0.008385,0.000205
-0.002885,-0.008517,-0.000463
-0.004964,-0.010516,-0.000989
-0.005688,-0.012539,-0.000424
-0.004982,-0.011833,0.001876
-0.00276,-0.010887,0.003588
-0.001014,-0.011107,0.003772
-0.002176,-0.012115,0.003026
-0.003525,-0.014031,0.001401
-0.002881,-0.015325,2.2e-05
-0.001811,-0.016004,-0.00069
-0.001721,-0.01647,-0.00147
-0.001847,-0.01758,-0.003966
-0.001065,-0.01872,-0.005911
-0.001265,-0.019843,-0.005214
-0.002739,-0.020729,-0.003794
-0.002856,-0.021169,-0.002521
-0.00352,-0.02142,-0.002261
-0.003084,-0.023232,-0.000934
0.000236,-0.024599,0.000431
0.002552,-0.024581,-0.000427
0.000614,-0.022556,-0.002028
-0.001958,-0.020329,-0.002353
-0.001995,-0.019888,-0.003126
-0.001017,-0.020325,-0.00426
-0.000334,-0.018065,-0.003749
0.000202,-0.014611,-0.002492
-0.001296,-0.013611,-0.001634
-0.003618,-0.014801,-0.001513
-0.00563,-0.014283,-0.002314
-0.004278,-0.012221,-0.001612
-0.001508,-0.010898,0.000429
-0.000238,-0.010953,0.001048
-0.000885,-0.011023,-0.000142
-0.0028,-0.010699,-0.002125
-0.004832,-0.010228,-0.002078
-0.005547,-0.010249,-0.002242
-0.004974,-0.009021,-0.004153
-0.003276,-0.007329,-0.005626
-0.001097,-0.007695,-0.004933
0.000271,-0.009239,-0.00349
0.000227,-0.009986,-0.002334
-0.000306,-0.01039,-0.001871
0.000842,-0.00856,-0.00285
0.0021,-0.008877,-0.004145
0.000815,-0.010661,-0.003207
-0.001235,-0.009801,-0.001159
-0.000787,-0.008271,-0.000504
-0.001417,-0.008829,-0.00038
-0.003498,-0.010009,-0.000466
-0.003496,-0.010751,-0.001878
-0.001721,-0.010907,-0.003449
-0.001847,-0.012028,-0.004529
-0.002056,-0.014074,-0.004374
-0.001335,-0.014062,-0.002014
-0.002954,-0.014223,-0.00121
-0.004809,-0.016527,-0.003592
-0.002821,-0.019362,-0.004981
-0.00179,-0.021206,-0.003529
-0.001129,-0.021681,-0.003738
0.000178,-0.021953,-0.004571
0.001786,-0.022209,-0.004252
0.003225,-0.021583,-0.004296
0.002961,-0.020174,-0.004277
0.001421,-0.018934,-0.004363
-6.6e-05,-0.017997,-0.00447
0.000437,-0.017155,-0.005002
0.002142,-0.01708,-0.005205
0.00138,-0.016981,-0.002638
-0.000688,-0.014783,0.000766
-0.001175,-0.014598,0.002349
-0.00058,-0.014726,0.001751
-0.001628,-0.014047,0.000505
-0.002056,-0.013359,0.000465
-0.000462,-0.011125,-9e-06
0.000774,-0.008431,-0.001954
-0.000513,-0.007493,-0.005195
-0.003144,-0.007972,-0.00723
-0.003798,-0.006104,-0.007353
-0.002858,-0.003642,-0.007442
-0.001771,-0.003638,-0.007304
-0.001648,-0.004273,-0.007354
-0.001529,-0.004807,-0.006939
-0.001511,-0.006804,-0.006559
-0.002885,-0.00855,-0.006558
-0.004048,-0.008527,-0.006732
-0.005655,-0.010116,-0.005359
-0.00639,-0.012893,-0.004616
-0.007432,-0.013481,-0.00487
-0.009246,-0.012861,-0.003367
-0.009589,-0.013154,-0.000375
-0.007138,-0.013972,0.000322
-0.00391,-0.014683,0.000584
-0.002152,-0.014709,0.00155
-0.00106,-0.015377,0.001583
-0.000559,-0.0169,0.001798
-0.001117,-0.017735,0.002773
-0.002854,-0.017632,0.003193
-0.004041,-0.018539,0.002956
-0.0017,-0.019695,0.002089
0.001847,-0.02004,0.001507
0.004533,-0.020317,0.001613
0.004822,-0.020054,0.001285
0.002962,-0.018904,-0.000476
0.001507,-0.017172,-0.001169
0.000573,-0.016655,0.000354
-0.000494,-0.016889,0.001395
0.000143,-0.01498,0.000152
0.002149,-0.012892,-0.001024
0.002809,-0.013787,-0.000278
0.001895,-0.015858,0.000152
-0.000331,-0.015451,-0.000498
0.000205,-0.010468,-0.000491
0.003703,-0.006705,-0.0003
0.005917,-0.006215,-0.000563
0.005145,-0.007779,-0.001726
0.00362,-0.009434,-0.001718
0.001387,-0.010245,-0.001181
-0.000942,-0.00949,-0.000847
-0.002378,-0.008481,-0.001253
-0.002799,-0.007748,-0.00246
-0.003898,-0.006778,-0.004408
-0.005619,-0.006538,-0.004593
-0.005881,-0.006399,-0.002973
-0.004865,-0.008041,-0.000853
-0.004251,-0.010369,-0.000281
-0.004959,-0.011806,-0.002025
-0.005322,-0.011075,-0.003236
-0.004034,-0.010642,-0.00453
-0.002488,-0.011815,-0.006132
-0.002287,-0.012892,-0.006295
-0.003725,-0.012412,-0.004839
-0.005617,-0.012033,-0.002915
-0.00683,-0.013158,0.000111
-0.006426,-0.013955,0.002534
-0.007303,-0.014794,0.00153
-0.009485,-0.014927,-0.001214
-0.009742,-0.01495,-0.001508
-0.009258,-0.017713,-0.000517
-0.010147,-0.020656,-0.001017
-0.010244,-0.020201,-0.004415
-0.007417,-0.017533,-0.00705
-0.005311,-0.014539,-0.006944
-0.00501,-0.013175,-0.004888
-0.00568,-0.014131,-0.003615
-0.005567,-0.016142,-0.003894
-0.002818,-0.01736,-0.005462
-0.00069,-0.018109,-0.00668
-0.001111,-0.018282,-0.006234
-0.003771,-0.016885,-0.005327
-0.005435,-0.013348,-0.004585
-0.004874,-0.009588,-0.003191
-0.003641,-0.009417,-0.001392
-0.002827,-0.009748,0.000266
-0.001047,-0.008602,0.000616
0.002258,-0.00834,-0.000561
0.004868,-0.008048,-0.00114
0.004347,-0.007087,0.000685
0.002394,-0.007557,0.002701
0.000183,-0.008342,0.002794
-0.000837,-0.008374,0.001625
-0.001504,-0.008535,6e-05
-0.000861,-0.008815,-0.000202
0.002154,-0.008024,0.000875
0.002847,-0.006901,0.001813
0.00047,-0.007464,0.001935
-0.000652,-0.009115,-0.00044
-0.002183,-0.009756,-0.002808
-0.003908,-0.010018,-0.003096
-0.004253,-0.011597,-0.002353
-0.003081,-0.012971,-0.003369
-0.002343,-0.013355,-0.005512
-0.003261,-0.014689,-0.004816
-0.003861,-0.017106,-0.003377
-0.004096,-0.017352,-0.003894
-0.004457,-0.015969,-0.003288
-0.005671,-0.017297,-0.003301
-0.005879,-0.01889,-0.004137
-0.003029,-0.018609,-0.004026
0.000323,-0.018009,-0.003734
0.002447,-0.018319,-0.004116
0.003467,-0.018582,-0.003588
0.005179,-0.018172,-0.002737
0.004676,-0.018356,-0.001377
0.002296,-0.019981,-8.9e-05
0.000397,-0.022208,0.001351
-0.000635,-0.02198,0.001657
-0.001283,-0.019891,0.00061
-0.000523,-0.018242,0.000423
0.001745,-0.017712,-0.001137
0.00248,-0.015816,-0.003441
0.002357,-0.013053,-0.002252
0.002206,-0.012413,-0.000106
0.003,-0.012875,0.001127
0.00438,-0.011983,-0.001043
0.005333,-0.010416,-0.003621
0.005316,-0.008428,-0.00307
0.004398,-0.007577,-0.000979
0.003873,-0.008012,-0.000478
0.002784,-0.009049,-0.001409
0.000496,-0.009481,-0.001835
-0.002151,-0.009827,-0.003034
-0.003117,-0.00806,-0.005076
-0.003471,-0.006147,-0.005837
-0.00229,-0.0074,-0.005553
-0.001505,-0.008752,-0.005885
-0.002024,-0.008673,-0.006187
-0.004357,-0.010696,-0.00598
-0.00512,-0.012379,-0.005566
-0.004091,-0.012648,-0.005667
-0.004362,-0.011403,-0.005282
-0.005641,-0.010818,-0.005324
-0.005178,-0.012877,-0.006037
-0.003396,-0.016407,-0.004835
-0.003529,-0.018274,-0.002288
-0.003236,-0.01729,-0.001025
-0.001254,-0.014581,-0.000284
0.00021,-0.014265,-0.001366
9e-06,-0.01747,-0.004725
-0.001179,-0.018279,-0.00548
-0.001536,-0.017154,-0.003146
-0.001702,-0.017645,0.000155
-0.001767,-0.017257,0.001345
-0.000891,-0.016416,0.000158
0.000531,-0.017274,0.00066
-3.8e-05,-0.018801,0.002558
-0.001294,-0.019187,0.003091
0.000181,-0.018316,0.002104
0.002346,-0.016474,0.001102
0.003121,-0.015187,0.000306
0.001473,-0.014345,0.000179
-0.000681,-0.013051,0.001085
-0.001516,-0.009053,0.00119
-0.002892,-0.006462,0.000727
-0.003434,-0.007441,-0.000436
-0.00255,-0.008841,-0.000595
-0.001124,-0.008046,-0.002536
-0.000408,-0.006284,-0.003757
-0.001217,-0.005332,-0.003505
-0.001759,-0.006426,-0.004931
-0.002249,-0.008585,-0.007578
-0.003849,-0.010035,-0.008135
-0.006522,-0.009723,-0.006381
-0.007759,-0.009859,-0.005892
-0.005071,-0.011668,-0.00556
-0.002592,-0.014196,-0.006038
-0.001268,-0.014226,-0.006814
0.001214,-0.013652,-0.005488
0.002845,-0.014407,-0.005156
0.002689,-0.01689,-0.006649
0.002064,-0.017386,-0.00614
0.001241,-0.017377,-0.004243
-0.000153,-0.018668,-0.00423
-0.000944,-0.019208,-0.004404
-0.000234,-0.017687,-0.001631
0.000461,-0.015791,0.001296
-0.000284,-0.014607,0.000343
-0.001637,-0.013881,-0.00247
-0.002165,-0.014365,-0.003766
-0.002174,-0.015959,-0.003546
-0.003818,-0.015907,-0.003095
-0.005438,-0.015947,-0.002181
-0.006029,-0.018254,-0.002511
-0.006638,-0.019792,-0.004332
-0.006146,-0.018483,-0.003932
-0.004269,-0.017138,-0.003245
-0.004744,-0.017883,-0.001969
-0.008346,-0.018847,-0.000994
-0.011528,-0.016832,-0.001713
-0.011257,-0.012943,-0.003192
-0.00955,-0.011488,-0.003781
-0.007888,-0.012176,-0.003878
-0.007079,-0.010948,-0.003038
-0.007126,-0.008161,-0.002187
-0.004398,-0.005675,-0.001756
-0.000318,-0.003968,-0.000946
0.000241,-0.002534,0.000226
-0.001056,-0.002143,-0.000292
-0.002524,-0.004091,-0.002378
-0.002938,-0.006691,-0.003548
-0.001742,-0.007424,-0.00232
0.001164,-0.007025,-0.001525
0.003409,-0.008745,-0.002437
0.003473,-0.010761,-0.00287
0.002072,-0.010916,-0.003406
-0.00094,-0.011239,-0.003698
-0.003525,-0.012231,-0.003173
-0.003116,-0.011941,-0.002846
-0.001837,-0.012092,-0.002328
0.000386,-0.0138,-0.001177
0.001177,-0.015783,-0.000734
0.00043,-0.015686,-0.002412
-0.002321,-0.013986,-0.004177
-0.004979,-0.01389,-0.003349
-0.006001,-0.015106,-0.001904
-0.006437,-0.015634,-0.000638
-0.004562,-0.015091,0.002329
-0.002632,-0.015778,0.004129
-0.002497,-0.017412,0.002449
-0.00252,-0.018454,0.001193
-0.002169,-0.01929,0.002247
-0.001811,-0.019532,0.003393
-0.0012,-0.018288,0.002511
0.000596,-0.017473,0.002543
0.00196,-0.016597,0.002653
0.001499,-0.015628,0.000674
-0.00062,-0.014199,-0.000322
-0.002221,-0.012168,0.000554
-0.002094,-0.010802,0.001301
-0.001731,-0.010832,0.002381
-0.000636,-0.010498,0.002617
0.000519,-0.010143,0.000215
-0.0001,-0.009895,-0.00139
-0.00034,-0.011763,-0.000529
0.00066,-0.0135,-0.000615
0.000528,-0.012267,-0.002443
0.000782,-0.009775,-0.002834
0.000976,-0.0079,-0.002378
1e-05,-0.006967,-0.000787
-0.001434,-0.007348,-0.00026
-0.001661,-0.008388,-0.001185
-8.6e-05,-0.008917,-0.00223
0.000897,-0.008429,-0.003558
0.001624,-0.009483,-0.005702
0.001578,-0.012202,-0.007965
0.000615,-0.01293,-0.008266
-0.002393,-0.012579,-0.007076
-0.004103,-0.011955,-0.006207
-0.001106,-0.012226,-0.005298
0.002546,-0.012403,-0.003209
0.004545,-0.013416,-0.000922
0.004921,-0.015687,0.001706
0.002815,-0.017298,0.002196
0.001344,-0.016685,0.000187
0.001367,-0.014841,-0.001746
0.001189,-0.014293,-0.002962
0.000189,-0.014712,-0.002579
-0.000695,-0.016526,-0.00172
-0.001403,-0.01807,-0.000634
-0.003066,-0.019096,-0.000213
-0.005026,-0.01861,-0.001485
-0.005856,-0.017891,-0.003283
-0.005534,-0.018697,-0.004248
-0.005581,-0.017805,-0.004907
-0.005405,-0.015773,-0.005962
-0.003902,-0.016334,-0.007627
-0.001622,-0.01873,-0.008241
-7.6e-05,-0.019134,-0.006177
-0.000352,-0.016585,-0.002726
-0.001291,-0.015578,-0.001531
-0.001258,-0.015091,-0.002729
-0.000635,-0.011965,-0.003757
-0.000794,-0.008242,-0.002948
-0.001652,-0.006462,-0.002389
-0.000634,-0.007075,-0.002095
0.000164,-0.008547,-0.000288
-0.001352,-0.007861,0.000205
-0.001928,-0.006363,-0.001002
-0.001505,-0.006517,-0.00238
-0.002457,-0.007516,-0.00227
-0.002689,-0.008184,-0.002144
-0.003078,-0.008958,-0.002356
-0.003101,-0.009837,-0.002368
-0.002385,-0.011207,-0.003248
-0.001658,-0.012337,-0.002982
-0.002652,-0.013755,-0.001166
-0.003165,-0.014837,-0.001122
-0.001517,-0.0153,-0.003376
0.000272,-0.014661,-0.002973
-0.000896,-0.013772,-0.000284
-0.00326,-0.01513,0.000826
-0.003329,-0.017492,-0.001216
-0.002728,-0.018393,-0.002707
-0.00356,-0.018063,-0.001798
-0.006251,-0.017523,-0.000557
-0.007854,-0.018313,-0.001249
-0.007831,-0.018495,-0.003052
-0.006609,-0.017497,-0.003592
-0.004979,-0.016549,-0.003501
-0.004404,-0.016029,-0.005331
-0.003878,-0.016563,-0.006488
-0.002834,-0.018058,-0.005712
-0.001901,-0.01998,-0.005218
0.000944,-0.020216,-0.005807
0.003825,-0.01922,-0.006858
0.003525,-0.017658,-0.005847
0.001234,-0.016179,-0.00197
-0.000735,-0.014835,0.000159
-0.001432,-0.012602,-0.001631
-0.001515,-0.0114,-0.004561
-0.000683,-0.011923,-0.004342
0.000182,-0.012283,-0.001668
-0.000657,-0.011796,-0.00084
-0.001775,-0.009766,-0.000708
-0.000171,-0.009531,-0.000814
0.001303,-0.011337,-0.002493
0.000794,-0.01183,-0.004029
0.000723,-0.010425,-0.00422
0.002057,-0.009651,-0.003974
0.003538,-0.009478,-0.00355
0.002824,-0.0089,-0.003203
0.000121,-0.009115,-0.002358
-0.001767,-0.009929,-0.001326
-0.002185,-0.011276,-0.000474
-0.002179,-0.012336,0.000601
-0.00382,-0.013576,-1e-06
-0.004198,-0.013584,-0.001782
-0.002907,-0.013465,-0.002846
-0.00168,-0.012518,-0.00231
-0.001621,-0.01139,-0.001609
-0.001054,-0.011004,0.000952
-0.000416,-0.011957,0.002832
-0.00017,-0.013339,0.002262
-0.000302,-0.014296,0.00092
-0.000988,-0.01456,0.001341
-0.001509,-0.016082,0.002013
-0.00067,-0.017346,0.00178
7.1e-05,-0.017065,0.001256
-0.001135,-0.015065,0.001194
-0.002651,-0.014343,0.000444
-0.002237,-0.013313,-0.000112
-0.000506,-0.011276,-0.00169
0.000539,-0.011017,-0.003543
0.001106,-0.013398,-0.004021
0.001639,-0.01729,-0.003918
0.001018,-0.018167,-0.004609
-0.000911,-0.015749,-0.005211
-0.002477,-0.012977,-0.003679
-0.003288,-0.011107,-0.001378
-0.003394,-0.009347,0.00037
-0.00163,-0.007972,0.001137
0.001518,-0.008618,0.000661
0.004259,-0.010639,-0.001114
0.003664,-0.013489,-0.002424
-2.4e-05,-0.014866,-0.002821
-0.003908,-0.013766,-0.00353
-0.005393,-0.012671,-0.003062
-0.00535,-0.010483,-0.002232
-0.004625,-0.008059,-0.002677
-0.005084,-0.007027,-0.004044
-0.005136,-0.006651,-0.004205
-0.003722,-0.007879,-0.003463
-0.002208,-0.009422,-0.003338
-0.001673,-0.009408,-0.003165
-0.001566,-0.009384,-0.002767
5.5e-05,-0.011031,-0.002184
0.002211,-0.012666,-0.000998
0.000977,-0.013577,-0.000855
-0.001179,-0.013899,-0.000489
-9.3e-05,-0.012886,-0.001707
0.000786,-0.012157,-0.004034
0.000285,-0.014497,-0.004252
-0.000803,-0.016919,-0.004295
-0.002002,-0.01612,-0.004339
-0.003822,-0.014423,-0.004735
-0.005292,-0.015859,-0.004448
-0.005146,-0.019437,-0.002752
-0.003861,-0.022129,-0.001252
-0.002616,-0.021514,-0.000325
-0.004389,-0.019951,0.000631
-0.00681,-0.019606,0.001157
-0.007046,-0.018061,0.000351
-0.006812,-0.016225,-0.000818
-0.004574,-0.015792,-0.000786
-0.001568,-0.016853,0.000222
0.001084,-0.015616,0.001823
0.000175,-0.011666,0.001201
-0.000904,-0.010346,-0.000733
0.000142,-0.010956,-0.002294
0.001209,-0.010834,-0.003953
0.001302,-0.009908,-0.004722
0.001173,-0.010307,-0.004653
0.001697,-0.011193,-0.004251
0.002843,-0.011305,-0.004786
0.001787,-0.010902,-0.005004
-0.001172,-0.010107,-0.004386
-0.003617,-0.010097,-0.00464
-0.005018,-0.010894,-0.004023
-0.005796,-0.010394,-0.002907
-0.005545,-0.009491,-0.003258
-0.005038,-0.008052,-0.003894
-0.003089,-0.008328,-0.006223
-0.001499,-0.010066,-0.008389
-0.002537,-0.010943,-0.007133
-0.003798,-0.010878,-0.003624
-0.002919,-0.012181,-0.001297
-0.002101,-0.014194,-0.001909
-0.001872,-0.014488,-0.003543
-0.002483,-0.01263,-0.002225
-0.00236,-0.011817,-0.000759
-0.002544,-0.013001,-0.002566
-0.004325,-0.015703,-0.002903
-0.004515,-0.017728,-0.001578
-0.002865,-0.018995,-0.002422
-0.001368,-0.019676,-0.003708
-0.000698,-0.019756,-0.003083
0.00021,-0.020072,-0.001066
0.000919,-0.019561,-0.001092
0.000476,-0.017288,-0.001493
-0.000231,-0.016385,-0.002048
-0.001183,-0.017961,-0.003732
-0.002436,-0.01833,-0.005133
-0.00201,-0.014918,-0.004183
0.000421,-0.013256,-0.002835
0.001762,-0.015102,-0.00221
0.0018,-0.0162,-0.001418
-0.000424,-0.014907,-0.001039
-0.003375,-0.011844,-0.001068
-0.004521,-0.009353,-0.000674
-0.004196,-0.009106,-0.001041
-0.00385,-0.010062,-0.001494
-0.003648,-0.01016,-0.002196
-0.003266,-0.009623,-0.00275
-0.003472,-0.008645,-0.00355
-0.00203,-0.007169,-0.003531
0.001047,-0.008206,-0.001606
0.002973,-0.009215,-0.001156
0.00136,-0.009521,-0.001268
0.000236,-0.008684,-0.001763
0.000496,-0.008004,-0.001402
0.000511,-0.008419,-0.001154
0.000769,-0.008856,-0.001939
0.001021,-0.009103,-0.003061
9e-05,-0.009409,-0.00362
-0.001129,-0.009204,-0.003505
-0.001753,-0.010435,-0.00331
-0.00158,-0.012186,-0.002648
-0.001516,-0.013471,-0.002537
-0.002434,-0.013725,-0.002963
-0.00353,-0.015127,-0.00371
-0.002727,-0.016046,-0.002883
-0.001134,-0.017889,-0.001091
-0.000981,-0.019355,0.000222
-0.001714,-0.019462,-0.001495
-0.002051,-0.019194,-0.003129
-0.002225,-0.020549,-0.003075
-0.002505,-0.022499,-0.002237
-0.00206,-0.022757,-0.001366
-0.00195,-0.021857,1.1e-05
-0.001651,-0.022911,0.000862
-0.001229,-0.023314,0.002656
-0.001183,-0.021268,0.004944
-0.001972,-0.019186,0.006185
-0.002304,-0.019666,0.003759
-0.000575,-0.019809,0.001113
0.001561,-0.018218,0.000865
0.001684,-0.01592,0.003086
0.001611,-0.014956,0.004412
0.002866,-0.015194,0.003326
0.002544,-0.015948,0.001945
-0.000171,-0.015243,0.001352
-0.002425,-0.012556,0.001228
-0.003551,-0.010572,-0.00011
-0.005431,-0.011556,-0.002634
-0.006724,-0.013329,-0.005461
-0.005962,-0.011756,-0.006817
-0.005194,-0.009384,-0.005701
-0.003083,-0.008864,-0.003081
-0.001549,-0.00816,-0.001526
-0.00208,-0.007942,-0.002022
-0.003039,-0.007991,-0.003325
-0.003351,-0.007905,-0.003395
-0.001896,-0.008615,-0.002323
-0.000169,-0.01045,-0.001603
-0.000712,-0.011231,-0.0015
-0.001579,-0.010147,-0.001967
-0.002037,-0.009798,-0.002667
-0.002741,-0.011828,-0.003546
-0.002842,-0.013133,-0.003832
-0.00367,-0.011665,-0.002421
-0.003864,-0.011288,-0.001177
-0.004316,-0.013086,-0.001575
-0.005068,-0.01428,-0.002127
-0.004588,-0.014496,-0.002911
-0.005522,-0.015143,-0.003514
-0.0075,-0.017114,-0.003535
-0.006269,-0.018279,-0.004239
-0.002592,-0.018126,-0.005324
-0.000574,-0.018154,-0.004898
-0.000935,-0.019489,-0.003835
-0.000905,-0.021,-0.004035
0.000291,-0.01991,-0.004635
0.002064,-0.01714,-0.003297
0.003178,-0.017634,-0.001355
0.003176,-0.018438,-0.001312
0.002794,-0.017863,-0.003417
0.002343,-0.01475,-0.004468
0.000927,-0.012786,-0.002862
-0.001321,-0.011978,-0.000462
-0.001971,-0.011182,-0.000137
6.6e-05,-0.010461,-0.000843
0.002559,-0.009814,-0.001381
0.002533,-0.01006,-0.002061
0.001797,-0.009011,-0.002977
0.002236,-0.005277,-0.003455
0.001745,-0.002009,-0.003086
-0.00105,-0.000861,-0.001886
-0.002494,-0.000366,-0.001789
-0.001538,-0.000975,-0.004869
-0.002165,-0.002501,-0.007758
-0.003772,-0.004367,-0.007666
-0.00432,-0.006887,-0.006444
-0.00317,-0.009291,-0.004517
-0.00171,-0.010237,-0.003129
-0.00135,-0.010191,-0.003701
-0.00068,-0.008442,-0.00496
0.001727,-0.007774,-0.004256
0.00264,-0.009204,-0.002174
-1.2e-05,-0.011265,-0.000103
-0.002069,-0.012218,-0.000145
-0.00217,-0.010567,-0.002172
-0.003933,-0.010062,-0.003585
-0.006915,-0.012494,-0.001886
-0.00675,-0.016471,-0.000321
-0.004282,-0.01873,-0.001328
-0.001666,-0.020062,-0.002892
0.000438,-0.019651,-0.003818
0.000469,-0.017688,-0.004113
-0.000651,-0.01628,-0.002737
-0.000909,-0.015955,-0.000957
-8.3e-05,-0.015813,-0.000376
0.000974,-0.015923,-0.001293
0.001189,-0.016829,-0.002253
0.000196,-0.016642,-0.001709
-0.000516,-0.015539,0.000996
-0.001445,-0.013928,0.000474
-0.003508,-0.014028,-0.002637
-0.003109,-0.015631,-0.002759
-0.002055,-0.016771,-0.00101
-0.002462,-0.016928,-0.000138
-0.001774,-0.016444,-0.000736
-0.001931,-0.015086,-0.001734
-0.004821,-0.012087,-0.003549
-0.007873,-0.008802,-0.005662
-0.007378,-0.006315,-0.0053
-0.004637,-0.006739,-0.00304
-0.002941,-0.008733,-0.002217
-0.002865,-0.009077,-0.002853
-0.002272,-0.009169,-0.003392
-0.003579,-0.008477,-0.003786
-0.003224,-0.007801,-0.003321
-0.000375,-0.008013,-0.003337
0.001307,-0.009728,-0.003507
0.000982,-0.010776,-0.003041
-2e-06,-0.009867,-0.003287
-0.000246,-0.008454,-0.003297
0.001959,-0.008765,-0.002352
0.005369,-0.011849,-0.002137
0.005677,-0.014245,-0.002864
0.001069,-0.014618,-0.003468
-0.003524,-0.014749,-0.002881
-0.004194,-0.014309,-0.000485
-0.004111,-0.014826,0.000135
-0.006274,-0.013967,-4.7e-05
-0.006024,-0.013674,0.000548
-0.004538,-0.015512,0.000614
-0.005547,-0.016803,0.000233
-0.007376,-0.017461,-0.00041
-0.006695,-0.017867,-2e-05
-0.005036,-0.019452,8.2e-05
-0.005233,-0.022882,-0.002168
-0.007236,-0.025064,-0.003676
-0.008289,-0.023333,-0.003004
-0.006539,-0.019292,-0.002389
-0.004863,-0.017604,-0.00285
-0.004463,-0.01757,-0.00217
-0.003423,-0.016105,0.000437
-0.002932,-0.012803,0.001789
-0.003481,-0.011255,0.000863
-0.004076,-0.012202,0.000129
-0.002669,-0.012904,-0.000796
-0.000659,-0.013032,-0.001699
-0.000758,-0.013567,-0.002376
-0.002517,-0.013841,-0.003636
-0.004673,-0.01238,-0.00469
-0.007934,-0.010845,-0.002964
-0.009306,-0.009959,-0.001915
-0.007307,-0.0096,-0.002497
-0.005637,-0.009498,-0.002922
-0.003554,-0.008175,-0.005088
-0.000883,-0.007469,-0.006878
-0.000641,-0.007674,-0.006626
-0.002064,-0.009817,-0.005204
-0.002782,-0.012657,-0.003661
-0.001054,-0.014069,-0.003433
0.000352,-0.013919,-0.002972
8.4e-05,-0.013572,-0.001987
-0.001229,-0.01362,-0.0018
-0.001809,-0.013572,-0.002103
0.000432,-0.013192,-0.002186
0.003014,-0.013532,-0.001868
0.003022,-0.016297,-0.000679
0.000674,-0.017783,0.00102
-0.00156,-0.017981,0.001075
-0.001511,-0.017791,2.4e-05
-0.00029,-0.017509,-0.002321
-0.000659,-0.017813,-0.004044
-0.001216,-0.018093,-0.004588
2.9e-05,-0.020168,-0.005386
0.001927,-0.023262,-0.005777
0.003134,-0.024316,-0.003922
0.003107,-0.021512,-0.001657
0.002069,-0.018814,-0.001991
0.000802,-0.018487,-0.002781
0.002121,-0.017152,-0.002208
0.004131,-0.015672,-0.002553
0.002286,-0.016552,-0.003486
0.000488,-0.015815,-0.00313
0.001869,-0.013184,-0.002852
0.004078,-0.012667,-0.002744
0.004673,-0.014622,-0.001972
0.004702,-0.015247,-0.001338
0.00398,-0.012738,-0.002251
0.002046,-0.010069,-0.002225
0.000707,-0.009324,-0.001372
0.00154,-0.009815,-0.000398
0.001996,-0.009879,0.000122
0.00046,-0.009773,-0.000455
-0.000499,-0.009543,-0.002341
0.002588,-0.007437,-0.004272
0.003779,-0.005588,-0.005074
0.00422,-0.006252,-0.004111
0.004526,-0.007154,-0.002838
0.004792,-0.008098,-0.001835
0.004194,-0.008443,-0.001505
0.002991,-0.008584,-0.001603
0.001441,-0.008537,-0.002069
-0.001015,-0.009252,-0.003136
-0.002578,-0.010412,-0.00253
-0.002458,-0.012401,-0.000958
-0.000998,-0.013629,-0.000814
-0.001171,-0.012337,-0.002616
-0.002863,-0.01095,-0.003138
-0.003556,-0.012957,-0.001667
-0.003618,-0.015845,-4.3e-05
-0.003804,-0.015959,0.000588
-0.005409,-0.01514,0.000507
-0.005408,-0.016039,-0.000577
-0.003136,-0.015872,-0.001335
-0.001842,-0.014477,-0.001605
-0.001243,-0.015384,-0.002414
-0.001373,-0.01654,-0.002973
-0.002538,-0.015814,-0.001979
-0.00415,-0.015631,-0.000396
-0.004044,-0.015899,-0.000165
-0.00454,-0.015633,-0.001843
-0.005626,-0.015971,-0.003163
-0.006839,-0.016589,-0.002559
-0.006057,-0.015964,-0.000694
-0.004326,-0.014417,-0.000365
-0.004433,-0.012639,-0.001335
-0.005175,-0.012384,-0.002552
-0.005356,-0.012903,-0.003456
-0.005808,-0.012451,-0.004454
-0.00765,-0.011729,-0.00643
-0.00729,-0.011355,-0.006476
-0.00496,-0.012178,-0.003756
-0.003798,-0.012297,-0.001401
-0.004969,-0.009974,-0.000369
-0.005417,-0.007535,0.000316
-0.001307,-0.006376,-0.000332
0.003191,-0.006938,-0.001584
0.003132,-0.009315,-0.001525
-0.000227,-0.012269,-0.003013
-0.002146,-0.01371,-0.0041
-0.003506,-0.013309,-0.003709
-0.003909,-0.012568,-0.003008
-0.002964,-0.013662,-0.003481
-0.002744,-0.013778,-0.004219
-0.003383,-0.013094,-0.003449
-0.004086,-0.013475,-0.002906
-0.003278,-0.015629,-0.004089
-0.001504,-0.018439,-0.005541
-8.1e-05,-0.018184,-0.005351
0.001207,-0.01653,-0.00276
0.001372,-0.017471,-0.001244
0.001815,-0.018909,-0.001615
0.003314,-0.019285,-0.001469
0.004929,-0.018243,0.000937
0.00459,-0.018762,0.004061
0.00354,-0.020513,0.00417
0.002067,-0.021278,0.002247
0.000401,-0.019938,-0.000106
0.000673,-0.017441,-0.00135
0.002929,-0.015299,0.00116
0.003187,-0.014476,0.003778
0.000455,-0.016221,0.003831
-0.001256,-0.014967,0.003104
-0.001961,-0.01205,0.00219
-0.002525,-0.011049,0.001518
-0.002288,-0.009775,0.001615
-0.001582,-0.007628,0.001989
-0.001328,-0.006514,0.00137
-0.001518,-0.008665,-0.000604
-0.001293,-0.010791,-0.001624
-0.001653,-0.010676,-0.001553
-0.00184,-0.009737,-0.001648
-0.002137,-0.010154,-0.002241
-0.003415,-0.009295,-0.003907
-0.005206,-0.008909,-0.003691
-0.005275,-0.008858,-0.002847
-0.00621,-0.008549,-0.002755
-0.006063,-0.008379,-0.003601
-0.005837,-0.008455,-0.005474
-0.00772,-0.008671,-0.006366
-0.0107,-0.009355,-0.006112
-0.011484,-0.010063,-0.006215
-0.009394,-0.011837,-0.005512
-0.006105,-0.014919,-0.004482
-0.003176,-0.017199,-0.002458
-0.003469,-0.018157,-0.00171
-0.006076,-0.01712,-0.003907
-0.005738,-0.015326,-0.005654
-0.001801,-0.01396,-0.004819
-0.00035,-0.01451,-0.003362
-0.000569,-0.017184,-0.001674
-0.001051,-0.020141,-0.000216
-0.001626,-0.021722,-0.001055
-0.000895,-0.021262,-0.003201
0.000238,-0.020734,-0.004354
0.000414,-0.020967,-0.00435
0.000648,-0.020048,-0.003035
0.000138,-0.018396,-0.001293
-0.000174,-0.016413,-0.002265
0.000692,-0.015074,-0.00483
0.001301,-0.016192,-0.004583
0.001849,-0.017107,-0.003193
0.001974,-0.01779,-0.004312
0.001367,-0.017441,-0.005877
0.000353,-0.015868,-0.005872
3.4e-05,-0.01341,-0.005778
0.001489,-0.012226,-0.004794
0.003414,-0.010534,-0.003232
0.003257,-0.008634,-0.003196
0.001567,-0.008147,-0.003727
0.000334,-0.007899,-0.00408
0.000913,-0.007093,-0.004324
0.000357,-0.007707,-0.002862
-0.003103,-0.00729,-0.000585
-0.004822,-0.005932,-0.002261
-0.002486,-0.005081,-0.006227
-0.001677,-0.006563,-0.006435
-0.003141,-0.008022,-0.003616
-0.003478,-0.007894,-0.000444
-0.002463,-0.008887,0.000837
-0.00134,-0.012273,-0.000576
-0.000758,-0.014264,-0.0012
-0.001137,-0.013156,-1.7e-05
-0.002352,-0.011197,0.00029
-0.003914,-0.009753,-0.0003
-0.005925,-0.010306,0.000142
-0.006525,-0.013144,0.000484
-0.00453,-0.014372,-0.000121
-0.001518,-0.013934,-0.001
-0.001268,-0.013607,-0.000333
-0.002693,-0.013838,1.4e-05
-0.003688,-0.01434,0.001069
-0.003846,-0.014703,0.001503
-0.004252,-0.014752,0.001834
-0.004592,-0.014065,0.001413
-0.005555,-0.013941,0.000481
-0.006811,-0.015061,0.000972
-0.006209,-0.015164,0.001946
-0.0041,-0.014938,0.001822
-0.002973,-0.01385,0.002075
-0.001522,-0.011214,0.00175
0.000116,-0.009618,-0.001234
-0.000864,-0.010978,-0.001791
-0.001471,-0.01296,-0.000552
-0.001241,-0.013074,-0.000951
-0.001419,-0.012126,-0.001348
-0.000735,-0.011803,-0.000719
0.000716,-0.012191,-0.000785
0.001667,-0.012023,-0.00205
0.001479,-0.009652,-0.00331
-0.000198,-0.006958,-0.002989
-0.001122,-0.007271,-0.002341
0.000643,-0.009412,-0.001653
0.000471,-0.008911,-0.000522
-0.001532,-0.007018,-0.000789
-0.002177,-0.005212,-0.001855
-0.002163,-0.005907,-0.000859
-0.001644,-0.008808,-0.00103
-0.000363,-0.010085,-1.9e-05
0.000372,-0.009673,0.000501
0.001203,-0.010577,0.000196
0.001258,-0.011532,-0.000634
-0.000542,-0.011674,-0.001439
-0.001505,-0.012685,-0.002145
-0.001293,-0.012307,-0.002683
-0.001417,-0.011178,-0.002856
-0.002334,-0.011041,-0.003532
-0.004297,-0.01361,-0.005331
-0.004864,-0.017959,-0.005863
-0.002952,-0.019088,-0.004147
-0.001127,-0.017621,-0.002722
-0.000696,-0.017658,-0.003083
-0.001019,-0.017962,-0.00288
-0.001503,-0.019134,-0.000958
-0.001041,-0.021767,-0.000171
-0.00041,-0.023669,-0.000673
-0.001253,-0.022364,-0.000113
-0.001315,-0.021529,-8.6e-05
4.7e-05,-0.023533,-0.001865
0.000771,-0.024604,-0.003302
0.000548,-0.02239,-0.003523
-0.00011,-0.020438,-0.001979
-0.001513,-0.018468,0.0
-0.001354,-0.017289,0.002062
-0.001858,-0.017337,0.005112
-0.004187,-0.017438,0.006173
-0.004929,-0.015648,0.004428
-0.002745,-0.011876,0.002735
-0.000175,-0.009029,0.000421
0.000589,-0.00677,-0.002045
0.0005,-0.005971,-0.00285
-0.000384,-0.006826,-0.002411
-0.001835,-0.006968,-0.002178
-0.002996,-0.006474,-0.003685
-0.004086,-0.006376,-0.005366
-0.005482,-0.005737,-0.007153
-0.006011,-0.004197,-0.008185
-0.00483,-0.004158,-0.007038
-0.002918,-0.003863,-0.005291
-0.001762,-0.004292,-0.004114
-0.002128,-0.006206,-0.004303
-0.002824,-0.008233,-0.00684
-0.003849,-0.009795,-0.010675
-0.00373,-0.010685,-0.011515
-0.001359,-0.010911,-0.009853
0.002072,-0.011145,-0.009941
0.003672,-0.011117,-0.009977
0.001014,-0.012928,-0.008053
-0.002758,-0.01497,-0.00663
-0.003189,-0.015273,-0.005546
-0.002112,-0.015245,-0.004207
-0.001125,-0.017464,-0.004539
-0.001286,-0.020884,-0.005683
-0.003442,-0.022173,-0.006065
-0.004375,-0.021266,-0.005395
-0.001741,-0.020085,-0.004351
0.001454,-0.019721,-0.003083
0.001858,-0.019142,-0.002817
0.001284,-0.018577,-0.003576
0.001178,-0.018834,-0.003121
0.000355,-0.019514,-0.00244
-0.001615,-0.020827,-0.0028
-0.003624,-0.020664,-0.001885
-0.002764,-0.019216,-0.000842
-0.000397,-0.016776,-0.000837
-0.000863,-0.015333,-0.000842
-0.000711,-0.015093,-0.00088
0.000451,-0.012594,-0.000842
0.001274,-0.010032,-0.000434
0.002408,-0.009069,0.000387
0.003277,-0.008619,0.002477
0.001994,-0.008075,0.003735
0.000109,-0.008125,0.003391
-0.000851,-0.007704,0.002407
-0.000871,-0.006698,0.0009
-0.001451,-0.006854,-0.002119
-0.003024,-0.010228,-0.003693
-0.004931,-0.013259,-0.002008
-0.005832,-0.012741,-0.00194
-0.004827,-0.00941,-0.002819
-0.001571,-0.008318,-0.003953
0.000654,-0.008813,-0.003521
0.001165,-0.008854,-0.001974
0.001011,-0.008312,-0.001775
0.000235,-0.009803,-0.002505
-0.000605,-0.012256,-0.002413
-0.001839,-0.012424,-0.001928
-0.002993,-0.011985,-0.002941
-0.002158,-0.012209,-0.00497
-0.002645,-0.013708,-0.005534
-0.002497,-0.015837,-0.004139
-0.001313,-0.017998,-0.002619
0.00015,-0.021371,-0.001669
-0.000248,-0.023647,8.2e-05
-0.00197,-0.024999,0.000736
-0.002157,-0.024612,0.000224
0.000498,-0.023992,-0.000804
0.002831,-0.023734,-0.001147
0.002437,-0.02212,-0.0002
0.001323,-0.020266,0.001102
0.001121,-0.019276,0.00178
0.002188,-0.016723,0.000414
0.001253,-0.014562,-0.001067
0.001184,-0.013109,-0.00252
0.001915,-0.013577,-0.002763
0.000633,-0.01354,-0.001612
-0.000943,-0.012815,-0.001242
-0.002327,-0.01164,-0.001368
-0.003846,-0.010645,-0.001312
-0.003906,-0.01048,-0.002891
-0.002676,-0.010897,-0.004884
-0.0022,-0.009611,-0.004158
-0.003366,-0.008317,-0.002513
-0.004593,-0.008245,-0.004664
-0.005561,-0.008204,-0.009353
-0.005548,-0.008542,-0.009507
-0.00571,-0.008219,-0.0052
-0.005877,-0.006224,-0.003361
-0.006108,-0.006166,-0.003371
-0.004858,-0.009146,-0.003653
-0.003194,-0.010889,-0.004364
-0.002956,-0.011377,-0.005373
-0.003873,-0.012911,-0.006576
-0.003954,-0.014114,-0.006405
-0.004276,-0.013874,-0.005126
-0.005913,-0.014249,-0.005063
-0.005379,-0.015759,-0.005837
-0.003166,-0.018125,-0.004098
-0.00198,-0.019468,-0.000666
-0.001063,-0.018111,0.001998
-0.000178,-0.014924,0.003696
-0.000988,-0.013665,0.0045
-0.003075,-0.014641,0.004204
-0.003166,-0.017153,0.003928
-0.002525,-0.017925,0.002982
-0.002325,-0.018682,0.003029
-0.002096,-0.019286,0.003441
-0.002694,-0.019406,0.002475
-0.003692,-0.020148,0.000233
-0.003241,-0.019548,-0.001017
-0.002364,-0.017214,-0.000669
-0.003265,-0.014997,-0.000649
-0.00413,-0.013097,-0.000217
-0.003866,-0.013905,-0.000819
-0.003725,-0.015902,-0.000612
-0.00428,-0.015222,0.000718
-0.003457,-0.01446,-0.00065
-0.001951,-0.013606,-0.003206
-0.000572,-0.012626,-0.003798
0.000215,-0.012366,-0.002963
-7e-05,-0.010686,-0.002843
-0.002239,-0.008842,-0.002863
-0.002905,-0.008206,-0.00337
-0.002387,-0.008008,-0.004056
-0.003923,-0.00865,-0.003146
-0.005353,-0.009629,-0.004284
-0.004312,-0.010181,-0.007316
-0.003178,-0.008253,-0.007566
-0.002829,-0.0065,-0.005027
-0.002364,-0.006332,-0.002493
-0.002194,-0.006746,-7.2e-05
-0.000951,-0.006454,0.000932
-0.000847,-0.007139,0.000686
-0.000832,-0.00914,-0.000915
-0.000326,-0.01134,-0.003055
-2.3e-05,-0.01314,-0.004202
-0.00207,-0.013126,-0.003968
-0.003885,-0.013443,-0.004609
-0.003249,-0.015208,-0.005001
-0.00227,-0.016529,-0.004296
-0.004764,-0.018847,-0.001614
-0.006909,-0.020424,-0.0002
-0.007629,-0.018166,-0.001281
-0.006543,-0.01762,-0.003429
-0.004692,-0.019071,-0.002766
-0.00308,-0.019662,-0.002067
-0.001032,-0.020425,-0.002184
0.000974,-0.02061,-0.001616
0.002588,-0.018464,-0.000731
0.004033,-0.016259,-0.001974
0.002885,-0.01535,-0.004741
-0.000162,-0.015428,-0.005799
-0.001412,-0.01613,-0.003882
0.001277,-0.015069,-0.002588
0.00386,-0.012233,-0.003525
0.00339,-0.011319,-0.003846
0.001411,-0.012065,-0.003472
-5.6e-05,-0.012892,-0.001887
0.000532,-0.012213,-0.00084
0.000327,-0.013599,-0.001396
-0.001284,-0.015103,-0.002275
-0.001674,-0.013401,-0.001836
-0.001212,-0.009913,-0.001113
0.000441,-0.007689,-0.001731
0.002541,-0.007443,-0.002679
0.003702,-0.006622,-0.003398
0.003863,-0.005164,-0.004121
0.003697,-0.004252,-0.003553
0.00318,-0.004221,-0.00367
0.002665,-0.005633,-0.00312
0.000749,-0.006499,-0.00239
-0.00109,-0.008513,-0.001418
-5.8e-05,-0.010886,0.000113
0.002119,-0.012544,5.5e-05
0.003507,-0.013066,-0.001801
0.003561,-0.014208,-0.002857
0.002561,-0.01692,-0.002429
0.002178,-0.018385,-0.001832
0.000886,-0.016752,-0.000764
-0.001355,-0.015728,0.000349
-0.002915,-0.01683,0.000198
-0.004031,-0.015471,0.000162
-0.004936,-0.013927,0.001226
-0.005852,-0.016765,0.001719
-0.005817,-0.019857,0.000382
-0.00631,-0.021137,-0.002044
-0.005678,-0.019762,-0.002146
-0.002714,-0.017572,-0.00129
-0.000144,-0.016685,-0.001092
0.0007,-0.017497,-0.001474
0.001287,-0.017051,-0.002234
0.001014,-0.016385,-0.002892
-0.000387,-0.01572,-0.003156
-0.000229,-0.015328,-0.004677
0.000481,-0.013971,-0.004871
0.000835,-0.01289,-0.004016
0.000695,-0.011498,-0.003638
-0.000442,-0.010798,-0.00322
-0.000212,-0.010012,-0.003573
-0.000335,-0.008966,-0.003973
-0.000405,-0.007366,-0.002982
-0.000663,-0.005182,-0.00202
-0.001583,-0.003478,-0.001661
-0.002813,-0.004252,-0.000352
-0.002602,-0.006506,0.000337
-0.000137,-0.00788,-0.000315
0.001646,-0.00947,-0.000504
0.001847,-0.011144,-0.001896
0.000843,-0.011068,-0.004193
-0.001579,-0.009497,-0.004125
-0.002421,-0.008678,-0.003041
-0.001809,-0.01097,-0.002556
-0.002075,-0.013111,-0.004151
-0.003576,-0.013854,-0.004501
-0.005276,-0.014479,-0.003486
-0.005515,-0.015215,-0.003372
-0.003482,-0.015995,-0.003392
-0.002403,-0.016627,-0.00297
-0.002724,-0.016279,-0.002602
-0.001217,-0.016531,-0.003338
0.000947,-0.017055,-0.00293
0.000534,-0.016003,-0.003013
-0.001242,-0.01426,-0.004144
-0.003034,-0.014497,-0.002787
-0.002823,-0.016453,-0.002053
-0.000915,-0.016866,-0.000651
-0.000504,-0.015491,0.002516
-0.002125,-0.0161,0.00338
-0.004814,-0.01744,0.001805
-0.006952,-0.016334,0.001021
-0.00745,-0.013895,0.001916
-0.006559,-0.01263,0.002582
-0.005561,-0.012281,0.001129
-0.00665,-0.011693,-0.001757
-0.007972,-0.010642,-0.003266
-0.007218,-0.010582,-0.002191
-0.005551,-0.010412,-0.000861
-0.003577,-0.010655,-0.001177
-0.004043,-0.011107,-0.001284
-0.004602,-0.011253,-0.001927
-0.003682,-0.011177,-0.002949
-0.001926,-0.010714,-0.004808
-0.000306,-0.009885,-0.007248
0.001294,-0.009376,-0.008524
0.001404,-0.010339,-0.008392
0.00018,-0.010425,-0.006988
-0.000166,-0.007504,-0.005724
-0.000764,-0.00629,-0.004798
-0.004381,-0.007494,-0.002602
-0.005783,-0.008603,-0.001561
-0.00282,-0.009707,-0.002996
0.00016,-0.011163,-0.004043
-0.000431,-0.012288,-0.003054
-0.003189,-0.012596,-0.002184
-0.0054,-0.01346,-0.002997
-0.005312,-0.013953,-0.005162
-0.003746,-0.012938,-0.006117
-0.000544,-0.011797,-0.005517
0.001555,-0.012229,-0.004143
0.001058,-0.015719,-0.003562
0.001415,-0.017755,-0.003241
0.001816,-0.016108,-0.002568
0.000849,-0.014262,-0.002183
0.000471,-0.015628,-0.00155
0.000227,-0.018273,-0.002085
0.000642,-0.020108,-0.002743
0.001134,-0.019179,-0.00352
-0.000302,-0.0168,-0.003901
-0.003471,-0.017129,-0.004675
-0.004451,-0.019676,-0.00392
-0.003492,-0.020146,-0.001926
-0.002029,-0.018584,-0.000734
-0.001746,-0.017211,-0.000746
-0.002949,-0.016412,-0.000573
-0.003774,-0.014047,9.8e-05
-0.005482,-0.012474,0.000485
-0.006871,-0.012529,-0.000171
-0.006744,-0.010995,-0.000437
-0.005378,-0.009984,0.000111
-0.004622,-0.008473,-0.000519
-0.0043,-0.006932,-0.001559
-0.003728,-0.006591,-0.001072
-0.002612,-0.00631,0.000884
-0.001447,-0.003951,0.00303
-0.000621,-0.002087,0.003867
-0.001688,-0.004561,0.003148
-0.003737,-0.008174,0.001168
-0.003209,-0.0109,-0.002329
-0.000377,-0.012171,-0.006568
0.00217,-0.012929,-0.007564
0.001055,-0.013564,-0.005592
-0.000855,-0.013219,-0.004032
-0.001759,-0.012657,-0.002904
-0.001723,-0.011958,-0.002326
-0.0026,-0.012162,-0.001965
-0.00352,-0.011464,-0.002484
-0.003852,-0.011587,-0.003021
-0.003349,-0.013583,-0.002798
-0.001613,-0.016376,-0.002735
-0.001391,-0.018169,-0.002612
-0.002589,-0.017908,-0.001694
-0.003463,-0.017207,-0.001069
-0.00319,-0.016948,-0.000196
-0.001516,-0.016301,0.000473
-0.001325,-0.016584,-0.000178
-0.002914,-0.017771,-9.6e-05
-0.003542,-0.017225,0.001314
-0.00209,-0.016293,0.002009
-0.000893,-0.017626,0.0008
-0.001022,-0.01979,-0.001475
-0.000528,-0.020188,-0.002048
0.000239,-0.019459,-0.000736
0.000518,-0.017594,0.000545
-3.1e-05,-0.014881,0.001614
-0.001863,-0.014253,0.001854
-0.003439,-0.017377,0.002149
-0.003343,-0.017956,0.001689
-0.003228,-0.014385,0.00064
-0.003435,-0.011135,0.000343
-0.002741,-0.009542,-6e-06
-0.001467,-0.008992,-0.001857
-0.001393,-0.007266,-0.003903
-0.003039,-0.00616,-0.003484
-0.003945,-0.007164,-0.001584
-0.001331,-0.008899,-0.000899
0.001493,-0.010974,-0.001517
0.002197,-0.012191,-0.002086
0.000805,-0.012024,-0.002735
-0.001269,-0.011161,-0.004036
-0.002493,-0.012537,-0.004529
-0.000784,-0.015259,-0.00347
0.000511,-0.01529,-0.002118
0.000713,-0.015568,-0.001688
0.000829,-0.017484,-0.003087
0.000293,-0.019175,-0.004857
-0.001529,-0.01938,-0.004736
-0.00283,-0.018792,-0.003215
-0.002827,-0.018273,-0.001708
-0.002403,-0.016473,-0.001903
-0.003183,-0.01468,-0.002243
-0.003907,-0.016334,-9.1e-05
-0.004607,-0.019535,0.001069
-0.003764,-0.019189,-0.00114
-0.002359,-0.017638,-0.002194
-0.001864,-0.017375,0.000498
-0.002336,-0.018714,0.002558
-0.003032,-0.019311,0.002787
-0.001983,-0.020378,0.00261
-0.000169,-0.021245,0.002117
0.000292,-0.020936,-0.000205
-0.000679,-0.019769,-0.001072
-0.001382,-0.017788,0.000116
5.8e-05,-0.01527,0.000455
0.001948,-0.012957,-0.000785
0.000587,-0.010911,-0.002942
-0.002372,-0.00969,-0.003069
-0.003164,-0.009075,-0.003333
-0.002329,-0.007679,-0.00491
-0.001374,-0.006166,-0.00594
-3.7e-05,-0.005853,-0.006429
0.001392,-0.005699,-0.005696
0.001003,-0.005437,-0.005266
-0.000196,-0.00486,-0.005569
0.000293,-0.005519,-0.006123
0.002111,-0.005924,-0.006372
0.003373,-0.004872,-0.007121
0.002877,-0.004355,-0.008724
0.001208,-0.006323,-0.00963
0.00113,-0.008872,-0.008447
-6.8e-05,-0.011408,-0.007608
-0.002508,-0.011079,-0.007883
-0.004354,-0.008378,-0.006768
-0.004219,-0.008617,-0.005199
-0.004031,-0.012435,-0.005356
-0.002756,-0.014165,-0.00577
-0.002764,-0.013316,-0.004864
-0.004453,-0.012548,-0.00406
-0.006474,-0.01336,-0.004883
-0.006091,-0.014554,-0.0051
-0.004422,-0.016335,-0.004482
-0.00188,-0.018438,-0.00221
0.00101,-0.018563,-0.000965
0.003889,-0.017863,-0.002027
0.003399,-0.017635,-0.003797
0.000418,-0.0171,-0.005483
-0.001838,-0.016584,-0.004059
-0.001421,-0.016031,-0.00263
0.001025,-0.015032,-0.001385
0.002512,-0.015824,-0.000607
0.001638,-0.017094,-0.001119
-0.000554,-0.016318,-0.001584
-0.001042,-0.01528,-0.001314
0.000693,-0.016848,-0.000578
0.002575,-0.018976,-0.001401
0.002628,-0.019595,-0.003142
0.001239,-0.018647,-0.003675
-8.3e-05,-0.016442,-0.002602
-0.001503,-0.014277,-0.00319
-0.000788,-0.013242,-0.003473
-6.6e-05,-0.013074,-0.002511
-0.000733,-0.012696,-0.000209
-0.001898,-0.011331,0.001235
-0.003293,-0.009156,0.00249
-0.004318,-0.007673,0.00213
-0.00462,-0.006945,-0.000119
-0.003534,-0.005364,-0.000383
-0.002859,-0.005193,0.000504
-0.003838,-0.00852,5.1e-05
-0.002025,-0.010383,-0.001258
0.000288,-0.009687,-0.002405
-0.001598,-0.010204,-0.001552
-0.002458,-0.012292,-0.001209
-0.000942,-0.013106,-0.002144
-0.000235,-0.011803,-0.001725
-0.000361,-0.011411,-0.001348
-0.002168,-0.012704,-0.001957
-0.003273,-0.014666,-0.001501
-0.00401,-0.014478,0.001105
-0.003279,-0.012844,0.00369
-0.002084,-0.012261,0.003207
-0.002681,-0.011422,0.001339
-0.002882,-0.011214,-0.000201
-0.001154,-0.012095,-0.000933
-0.002063,-0.01319,-0.00178
-0.00521,-0.015261,-0.002853
-0.00498,-0.016191,-0.003114
-0.004348,-0.014835,-0.001815
-0.004114,-0.014459,0.000519
-0.003671,-0.015544,0.000977
-0.002377,-0.016251,0.000133
-0.000868,-0.014714,-0.000874
-0.001962,-0.013341,-0.00195
-0.00419,-0.012393,-0.003112
-0.003967,-0.011922,-0.003637
-0.002046,-0.013398,-0.004064
-0.0015,-0.014757,-0.004879
-0.000927,-0.014487,-0.006076
-0.000183,-0.012991,-0.005892
0.002144,-0.013063,-0.00436
0.001514,-0.012434,-0.004269
-0.000109,-0.010699,-0.004836
-0.000833,-0.008817,-0.004788
-0.002418,-0.00799,-0.005201
-0.003712,-0.007628,-0.005813
-0.004447,-0.006643,-0.006209
-0.004851,-0.006146,-0.005284
-0.003831,-0.007042,-0.004845
-0.002818,-0.007565,-0.005156
-0.002833,-0.007021,-0.00364
-0.003122,-0.008032,-0.001906
-0.00104,-0.01054,-0.002759
0.000858,-0.011928,-0.003194
0.000697,-0.010699,-0.001921
-0.00136,-0.010395,-0.002875
-0.004843,-0.011681,-0.002727
-0.005561,-0.013662,-0.001282
-0.004267,-0.015338,-0.000524
-0.003173,-0.018109,-0.000168
-0.002859,-0.02118,0.001275
-0.002501,-0.022926,0.001751
-0.002757,-0.023547,0.001786
-0.001847,-0.023922,0.001974
-0.001796,-0.02277,0.00201
-0.002429,-0.019969,0.000681
-0.00221,-0.018982,-0.001758
-0.00156,-0.021013,-0.003159
-0.003251,-0.0215,-0.002321
-0.003592,-0.018423,-0.000577
-0.003371,-0.01568,8.9e-05
-0.003962,-0.014946,0.001175
-0.003661,-0.014182,0.001435
-0.002201,-0.012457,-0.000124
-0.001519,-0.011276,-0.001456
-0.000239,-0.010919,-0.00136
0.000968,-0.011608,-0.001412
-0.001158,-0.012967,-0.001639
-0.003854,-0.01368,-0.002677
-0.003415,-0.011296,-0.003319
-0.001523,-0.010559,-0.003691
-0.00078,-0.013029,-0.003038
-0.000378,-0.014034,-0.003036
-0.001607,-0.012549,-0.001967
-0.001781,-0.011192,-0.00112
-0.001658,-0.008681,-0.001817
-0.0029,-0.005345,-0.003776
-0.002045,-0.004394,-0.004366
0.000338,-0.006439,-0.004189
-0.00015,-0.007345,-0.005318
-0.00234,-0.005592,-0.006118
-0.004068,-0.004366,-0.004037
-0.004528,-0.00448,-0.001878
-0.00323,-0.006156,-0.002329
-0.001836,-0.007565,-0.002278
-0.000977,-0.008477,-0.000384
0.001043,-0.010668,0.000895
0.003924,-0.011758,0.002183
0.004856,-0.011289,0.003642
0.003455,-0.011698,0.003978
0.001433,-0.013119,0.002233
0.001854,-0.014837,0.000794
0.002929,-0.015578,0.000723
0.00367,-0.015908,-0.000111
0.004111,-0.016064,-0.002707
0.002925,-0.017123,-0.003797
0.000349,-0.019292,-0.002146
-0.002167,-0.021326,-0.001518
-0.001145,-0.022416,-0.002965
-0.000561,-0.021694,-0.004118
-0.00106,-0.021618,-0.001197
-0.000664,-0.020207,5e-06
0.001166,-0.017415,-0.001788
0.002069,-0.016111,-0.002932
0.001402,-0.016698,-0.002237
0.001488,-0.017435,-2.9e-05
-9e-06,-0.017273,0.001236
-0.00157,-0.015898,9.9e-05
-0.00077,-0.015015,-0.001287
0.000554,-0.014362,-0.000327
0.001463,-0.013765,0.000325
-0.000566,-0.013627,-0.002805
-0.002869,-0.013726,-0.006053
-0.002466,-0.011937,-0.006032
-0.00047,-0.01017,-0.005328
0.000466,-0.009756,-0.006324
-0.001106,-0.009844,-0.006934
-0.003794,-0.009751,-0.005245
-0.004868,-0.009695,-0.003985
-0.004155,-0.008958,-0.004015
-0.004231,-0.008772,-0.005249
-0.003698,-0.01022,-0.006756
-0.00183,-0.013403,-0.006617
-0.001491,-0.016437,-0.005157
-0.002533,-0.015093,-0.004525
-0.001759,-0.012972,-0.005747
-0.000756,-0.013583,-0.005958
-0.000191,-0.016073,-0.004207
-0.0003,-0.017306,-0.002917
-0.000278,-0.015773,-0.00263
-0.000814,-0.013355,-0.003552
-0.001075,-0.012187,-0.005739
-0.001119,-0.011866,-0.005254
-0.001831,-0.011436,-0.002807
-0.003682,-0.012463,-0.001637
-0.006093,-0.014583,-0.001516
-0.007305,-0.016851,-0.000763
-0.005762,-0.017952,0.000453
-0.00416,-0.015943,0.000678
-0.002697,-0.01661,0.000591
-0.001523,-0.019329,-2.3e-05
-0.001932,-0.020156,-0.000176
-0.003978,-0.019398,6.3e-05
-0.005391,-0.018577,0.00104
-0.004008,-0.018022,0.001854
-0.001652,-0.018424,0.000724
-0.000955,-0.018403,-0.000372
-0.00135,-0.017254,-0.00051
-0.001002,-0.013775,-0.001537
0.001737,-0.010799,-0.001714
0.001559,-0.008222,-0.000275
-0.000995,-0.007231,0.001164
-0.00214,-0.006926,0.001904
-0.001506,-0.005408,0.00231
-0.001627,-0.004592,0.000594
-0.002355,-0.005872,-0.001815
-0.004121,-0.009196,-0.003251
-0.006369,-0.011001,-0.004762
-0.006703,-0.010628,-0.004595
-0.006007,-0.009859,-0.004203
-0.006772,-0.010442,-0.003298
-0.006471,-0.011548,-0.001868
-0.004441,-0.011597,-0.00232
-0.003278,-0.012638,-0.004757
-0.003515,-0.014193,-0.00616
-0.004203,-0.014793,-0.006186
-0.004443,-0.014922,-0.005108
-0.003567,-0.015017,-0.002537
-0.003501,-0.01543,-0.000115
-0.005529,-0.016073,0.000498
-0.006341,-0.015857,0.000509
-0.003041,-0.01513,0.00082
0.002354,-0.015015,0.001552
0.006853,-0.016702,0.001631
0.007634,-0.018551,0.000222
0.005046,-0.018983,-0.002164
0.001081,-0.02009,-0.002825
-0.000893,-0.022187,-0.002237
0.000161,-0.022645,-0.002845
0.002446,-0.019417,-0.003431
0.003567,-0.016192,-0.001934
0.002747,-0.015794,-0.00062
0.001901,-0.015415,-0.000951
-8.4e-05,-0.014002,-0.000598
-0.002202,-0.012314,-0.000533
-0.00259,-0.012205,-0.001966
-0.002056,-0.013632,-0.002848
-0.00162,-0.013282,-0.003416
-0.001019,-0.010384,-0.005298
-0.001652,-0.007674,-0.006428
-0.002448,-0.007793,-0.006242
-0.002191,-0.010486,-0.004928
-0.001536,-0.011864,-0.003359
-0.001876,-0.01067,-0.003677
-0.000356,-0.00861,-0.004829
0.001635,-0.009341,-0.004708
-0.000389,-0.010838,-0.004747
-0.004474,-0.010678,-0.004944
-0.00727,-0.008267,-0.005269
-0.007939,-0.006244,-0.005547
-0.006149,-0.006431,-0.005321
-0.004018,-0.007131,-0.005564
-0.004181,-0.007204,-0.00635
-0.006638,-0.008085,-0.005558
-0.007835,-0.009607,-0.003966
-0.006208,-0.010921,-0.00253
-0.004095,-0.011333,-0.001453
-0.002656,-0.012671,-0.000899
-0.002895,-0.013083,-0.001238
-0.004583,-0.01325,-0.00167
-0.005051,-0.013896,-0.002065
-0.004042,-0.01489,-0.002119
-0.004126,-0.014826,-0.001743
-0.004755,-0.013583,-0.000828
-0.005153,-0.013974,0.000456
-0.004207,-0.015809,0.002068
-0.001956,-0.01532,0.003076
-0.001502,-0.015854,0.002286
-0.002807,-0.018841,9.7e-05
-0.003512,-0.019624,-0.000344
-0.003234,-0.018773,-0.000339
-0.001838,-0.016869,-0.001855
3e-06,-0.014151,-0.001491
0.001458,-0.011931,-0.000292
0.001662,-0.01204,0.000178
0.000599,-0.01291,-3e-06
0.00161,-0.013583,-0.000158
0.003263,-0.011925,3.2e-05
0.003215,-0.009012,-0.000292
0.003158,-0.008236,-0.001425
0.003183,-0.008783,-0.002666
0.001338,-0.007826,-0.003794
-0.000175,-0.006868,-0.004186
0.000521,-0.007948,-0.002695
0.000567,-0.008449,-0.000224
0.000193,-0.007643,0.00107
0.001821,-0.006604,-0.000461
0.004323,-0.006452,-0.002583
0.00334,-0.006832,-0.003661
3.1e-05,-0.008355,-0.00422
-0.00208,-0.010379,-0.005708
-0.000897,-0.010533,-0.007006
0.000821,-0.00973,-0.005595
0.000362,-0.01026,-0.003273
0.001647,-0.012032,-0.001353
0.00218,-0.013234,-0.001506
0.00232,-0.013614,-0.002878
0.001637,-0.0145,-0.003795
-0.000422,-0.015299,-0.003058
-0.001067,-0.017739,-0.002136
4.3e-05,-0.019962,-0.000946
-0.000699,-0.019441,-0.001254
-0.001443,-0.018299,-0.002645
-0.001609,-0.018528,-0.003902
-0.003122,-0.019904,-0.003348
-0.005026,-0.022254,-0.002152
-0.004772,-0.024028,-0.0021
-0.004374,-0.023637,-0.003043
-0.005617,-0.022403,-0.003495
-0.004192,-0.020995,-0.003195
-0.001526,-0.02015,-0.003109
-0.001595,-0.018041,-0.001994
-0.002046,-0.016399,-0.001056
-0.001202,-0.016096,-0.001949
-2.1e-05,-0.014855,-0.002178
0.001371,-0.013313,-0.002335
0.001569,-0.013777,-0.002427
-0.0002,-0.015409,-0.001661
-0.002971,-0.016156,-0.000613
-0.004099,-0.014313,-0.000711
-0.003661,-0.010717,-0.001109
-0.002622,-0.008594,-0.000733
-0.001882,-0.008861,-0.000827
-0.001662,-0.009742,-0.002851
-0.001596,-0.009555,-0.00293
-0.002293,-0.009734,-0.003706
-0.003255,-0.010479,-0.004534
-0.004852,-0.010812,-0.004697
-0.00575,-0.01042,-0.005037
-0.00424,-0.009347,-0.00431
-0.001937,-0.008789,-0.002412
-0.001162,-0.008532,-0.000666
-0.002011,-0.009672,-0.000404
-0.00351,-0.011816,-0.000763
-0.004586,-0.011386,-0.000556
-0.004224,-0.010017,-0.000346
-0.003871,-0.010892,-0.001675
-0.00484,-0.012774,-0.004289
-0.004468,-0.014968,-0.005343
-0.003011,-0.014996,-0.004273
-0.003576,-0.013817,-0.004727
-0.004854,-0.014726,-0.005329
-0.004212,-0.018084,-0.004943
-0.003084,-0.020165,-0.003939
-0.001974,-0.0195,-0.003789
-0.000326,-0.017646,-0.002972
0.001395,-0.015696,-0.000284
0.002406,-0.015154,0.001458
0.000722,-0.016131,0.002126
-0.001422,-0.018072,0.000894
-0.00254,-0.02027,-0.000194
-0.002694,-0.019644,-0.000873
-0.001402,-0.017862,-0.00093
-0.001606,-0.016243,0.00034
-0.004425,-0.014252,0.000393
-0.00553,-0.013409,-0.001455
-0.004744,-0.011707,-0.002773
-0.00348,-0.009885,-0.001478
-0.003408,-0.009128,-8.2e-05
-0.003752,-0.007502,-0.000538
-0.003479,-0.008292,-0.002401
-0.001781,-0.011458,-0.003995
0.000342,-0.010045,-0.003888
0.001184,-0.005565,-0.001685
0.000219,-0.0043,-0.001703
-0.001412,-0.006186,-0.004242
-0.00297,-0.007943,-0.0042
-0.0034,-0.008492,-0.002874
-0.003593,-0.009724,-0.002642
-0.004206,-0.011375,-0.003076
-0.005393,-0.011378,-0.003964
-0.006067,-0.009344,-0.00473
-0.006439,-0.007758,-0.004422
-0.007531,-0.008563,-0.003576
-0.007624,-0.00956,-0.002676
-0.004276,-0.010794,-0.001624
-0.000316,-0.012666,-0.00167
0.000499,-0.013057,-0.002875
0.000421,-0.011567,-0.003599
0.003012,-0.011999,-0.003884
0.005067,-0.014133,-0.002178
0.003648,-0.015626,-0.001059
0.001099,-0.016399,-0.000708
0.000346,-0.017118,-0.000982
-0.000578,-0.019278,-0.002629
-0.002014,-0.022349,-0.004364
-0.002286,-0.024138,-0.004402
-0.001137,-0.023744,-0.003671
-0.00141,-0.021627,-0.001108
-0.003059,-0.019164,0.001663
-0.003027,-0.017942,0.003849
-0.001845,-0.017334,0.004566
-0.001996,-0.017454,0.004882
-0.002961,-0.016567,0.004785
-0.003409,-0.016357,0.003309
-0.003274,-0.016207,0.001838
-0.002188,-0.015198,0.001353
-0.000907,-0.014614,0.000491
-0.00011,-0.012462,-0.000178
0.000728,-0.009482,-0.000604
0.0015,-0.007795,-0.000355
0.002908,-0.008119,0.001615
0.002595,-0.008206,0.002454
0.002032,-0.007117,0.001882
0.002498,-0.006841,-0.000244
0.001831,-0.006235,-0.002321
0.000493,-0.00491,-0.003561
0.001387,-0.006045,-0.003687
0.001961,-0.009482,-0.004423
0.000209,-0.011565,-0.00716
-0.003625,-0.010422,-0.008829
-0.00623,-0.009308,-0.00809
-0.006308,-0.008729,-0.008043
-0.004466,-0.007638,-0.008455
-0.003074,-0.007327,-0.008046
-0.004139,-0.008973,-0.005888
-0.005912,-0.011383,-0.00554
-0.006216,-0.014614,-0.005706
-0.006354,-0.015545,-0.004105
-0.008074,-0.014833,-0.002702
-0.006368,-0.014493,-0.001926
-0.002618,-0.016204,-0.002275
-0.000839,-0.016834,-0.002276
-0.001508,-0.017262,-0.001395
-0.002609,-0.018045,-0.001018
-0.00226,-0.018773,-0.001863
-0.001845,-0.018955,-0.003136
-0.001848,-0.017988,-0.002529
-0.00021,-0.015975,-0.001095
0.001657,-0.01339,-0.000239
0.001848,-0.013558,-0.000171
0.00078,-0.015602,-0.000462
-0.001077,-0.014856,0.000588
-0.003018,-0.013095,0.001318
-0.002634,-0.014656,0.001169
-0.001065,-0.017633,0.000735
-0.000714,-0.017467,-0.000648
-0.002313,-0.015007,-0.001499
-0.002634,-0.011911,-0.000661
-0.000285,-0.009323,0.000699
0.002251,-0.008665,0.000179
0.002596,-0.010562,-0.000685
0.000805,-0.013206,-0.001413
-0.000737,-0.015159,-0.002282
-0.000674,-0.014596,-0.002355
-0.000712,-0.012275,-0.003385
0.001276,-0.010182,-0.003868
0.004233,-0.009837,-0.004002
0.005733,-0.009361,-0.004884
0.006152,-0.009029,-0.005452
0.004331,-0.010411,-0.004078
0.000973,-0.012965,-0.002846
-0.000272,-0.01432,-0.003653
-0.001445,-0.013051,-0.005081
-0.003631,-0.011499,-0.005052
-0.005011,-0.013434,-0.003496
-0.00402,-0.015415,-0.003491
-0.002241,-0.015617,-0.006096
-0.001733,-0.01629,-0.006101
-0.0029,-0.01657,-0.002555
-0.001316,-0.014367,-0.000302
0.00237,-0.013073,-0.001088
0.003073,-0.015483,-0.001522
0.000568,-0.018107,-0.001103
-0.000687,-0.019194,-0.00176
-0.000681,-0.01946,-0.000985
-0.001795,-0.019506,0.000562
-0.002696,-0.019528,-0.000749
-0.002861,-0.018163,-0.002303
-0.0037,-0.017084,-0.002081
-0.005419,-0.016482,-0.001249
-0.006537,-0.014615,-0.000829
-0.005453,-0.012301,-0.00023
-0.004114,-0.013023,-0.000948
-0.003814,-0.01352,-0.0021
-0.004433,-0.013609,-0.003706
-0.005478,-0.01474,-0.003778
-0.006126,-0.014906,-0.002933
-0.005446,-0.013739,-0.003388
-0.003074,-0.012798,-0.004045
-0.000294,-0.013254,-0.003542
-0.000724,-0.013848,-0.002431
-0.003777,-0.013656,-0.003421
-0.003615,-0.013301,-0.00398
-0.001597,-0.011486,-0.002912
-0.002274,-0.007479,-0.001204
-0.005113,-0.005274,-0.002261
-0.0053,-0.006278,-0.002847
-0.002452,-0.008267,-0.003077
0.001509,-0.009124,-0.003406
0.002366,-0.010106,-0.002318
-0.000428,-0.010915,-0.001663
-0.003117,-0.01072,-0.002412
-0.004486,-0.010684,-0.003162
-0.004639,-0.011209,-0.003953
-0.004135,-0.011809,-0.00536
-0.004177,-0.012768,-0.006714
-0.003572,-0.012622,-0.006875
-0.002692,-0.012915,-0.006387
-0.002438,-0.013677,-0.004327
-0.001322,-0.01484,-0.003615
-0.000311,-0.016287,-0.001776
-0.001437,-0.01593,9e-06
-0.002351,-0.015671,0.001148
-0.000702,-0.017946,0.001307
0.00043,-0.020686,-2.7e-05
0.001487,-0.021547,-0.000444
0.003082,-0.020488,0.000948
0.002775,-0.019346,0.002626
0.001433,-0.019005,0.002615
0.002356,-0.018514,0.000731
0.002852,-0.018308,-0.000465
0.001827,-0.01767,-0.001049
0.001407,-0.018965,-0.00229
0.00022,-0.018597,-0.003127
-0.001129,-0.016523,-0.002681
-0.001295,-0.015051,-0.001737
-0.00165,-0.014195,-0.000364
-0.004951,-0.013435,0.000899
-0.008048,-0.012331,0.002067
-0.00705,-0.009686,0.002308
-0.004034,-0.008087,0.000652
-0.002543,-0.00945,-0.000653
-0.001489,-0.009764,-0.000554
-0.001191,-0.008339,-0.001432
-0.001506,-0.007053,-0.003186
0.000565,-0.005443,-0.003242
0.001149,-0.004396,-0.003905
-0.001232,-0.006128,-0.004015
-0.001267,-0.008125,-0.003206
0.001424,-0.0069,-0.0036
0.002804,-0.004759,-0.005531
0.001125,-0.005235,-0.006383
-0.001549,-0.007202,-0.006076
-0.003193,-0.009449,-0.006213
-0.0029,-0.011232,-0.006003
-0.001736,-0.010219,-0.00397
-0.001058,-0.007967,-0.002625
-0.001817,-0.009167,-0.002362
-0.002816,-0.012633,-0.002876
-0.002042,-0.013839,-0.003902
-0.00211,-0.013404,-0.00559
-0.00177,-0.015717,-0.005538
-0.001724,-0.019354,-0.00419
-0.002055,-0.02135,-0.003193
-0.000389,-0.021816,-0.002034
0.002281,-0.022079,-5.1e-05
0.002988,-0.021527,0.000174
0.000961,-0.019146,-0.00164
-0.001907,-0.016994,-0.001785
-0.003668,-0.016045,-0.002966
-0.005091,-0.015637,-0.00489
-0.00555,-0.016611,-0.003874
-0.003114,-0.016381,-0.000857
-0.002385,-0.015068,0.001073
-0.003516,-0.012489,0.001109
-0.003137,-0.010707,-0.000784
-0.001681,-0.010617,-0.002213
-0.000401,-0.01109,-0.002412
0.000608,-0.010571,-0.000629
0.000307,-0.011024,0.000698
-0.000162,-0.012036,-0.000272
0.001808,-0.011007,-0.001836
0.004708,-0.009898,-0.002724
0.003416,-0.011363,-0.003453
-0.002608,-0.013525,-0.004488
-0.006167,-0.011474,-0.004811
-0.004643,-0.008419,-0.003079
-0.002676,-0.007895,-0.002122
-0.002101,-0.011597,-0.001672
-0.003469,-0.012984,-0.00101
-0.005035,-0.011002,-0.00067
-0.004417,-0.010145,-0.000432
-0.002535,-0.011335,-0.000538
-0.002965,-0.012823,-0.003051
-0.00564,-0.01279,-0.00613
-0.007073,-0.012067,-0.006624
-0.005788,-0.012344,-0.005119
-0.003218,-0.013506,-0.004402
-0.003179,-0.015604,-0.003361
-0.004561,-0.016953,-0.002443
-0.004763,-0.01668,-0.001168
-0.004427,-0.014927,0.000911
-0.005491,-0.014313,0.000781
-0.005785,-0.01481,-0.000663
-0.004211,-0.015512,-0.001509
-0.002763,-0.015961,-0.000472
-0.001847,-0.017069,0.001694
-0.001072,-0.018298,0.001961
0.000159,-0.017017,0.000439
0.002405,-0.014134,-0.000956
0.002865,-0.012548,-0.001622
0.002198,-0.013873,-0.00184
0.001639,-0.015079,-0.002366
0.000163,-0.014273,-0.002817
-0.001258,-0.012428,-0.002271
-0.001904,-0.010203,-0.001091
-0.002619,-0.010119,-0.000837
-0.002863,-0.009565,-0.000773
-0.0022,-0.007991,-0.000428
-0.00022,-0.008227,-0.00017
0.001376,-0.009522,-0.001008
0.000845,-0.009204,-0.002455
-0.000789,-0.009408,-0.003632
-0.000332,-0.011286,-0.004149
0.002323,-0.012197,-0.003884
0.003349,-0.010922,-0.003193
0.001867,-0.008484,-0.003006
-0.000521,-0.007806,-0.002734
-0.002988,-0.009593,-0.001976
-0.005005,-0.011115,-0.002343
-0.00514,-0.011821,-0.004387
-0.003539,-0.013003,-0.006323
-0.002155,-0.013577,-0.006012
-0.000599,-0.011584,-0.003522
0.000402,-0.010285,-0.001788
-0.00025,-0.012849,-0.002009
-0.000903,-0.015804,-0.00218
-0.001166,-0.018371,-0.001887
-0.002936,-0.018629,-0.002165
-0.005595,-0.017865,-0.003883
-0.006722,-0.019998,-0.004272
-0.005059,-0.023152,-0.001725
-0.002759,-0.023527,0.00025
-0.002861,-0.022443,-0.00039
-0.00406,-0.021847,-0.001309
-0.004635,-0.021497,-0.001593
-0.004355,-0.02224,-0.00242
-0.003215,-0.022475,-0.003971
-0.001331,-0.019443,-0.003708
-0.001107,-0.014656,-0.001406
-0.001595,-0.013157,2e-05
-0.00277,-0.015888,0.000785
-0.003852,-0.01695,0.001177
-0.00476,-0.01547,0.002027
-0.003036,-0.013421,0.004385
-0.001032,-0.012686,0.004052
-0.000698,-0.013786,0.001411
-0.000806,-0.013778,-0.001579
5.6e-05,-0.012177,-0.003449
-0.000273,-0.011425,-0.003588
-0.00163,-0.013062,-0.001735
-0.00263,-0.014887,-0.00039
-0.001862,-0.014278,-0.000913
-0.000283,-0.010938,-0.002537
0.0003,-0.008146,-0.001967
-0.000953,-0.005319,-0.001678
-0.001648,-0.003553,-0.002905
-0.00086,-0.004648,-0.004226
-0.001221,-0.005593,-0.004352
-0.002702,-0.005622,-0.003608
-0.004973,-0.004639,-0.003808
-0.006683,-0.004883,-0.00403
-0.006559,-0.007235,-0.004534
-0.00584,-0.010128,-0.003787
-0.004801,-0.011871,-0.003822
-0.003305,-0.012495,-0.005725
-0.001811,-0.013882,-0.006772
-0.000655,-0.014135,-0.006309
-0.002359,-0.012541,-0.004973
-0.006037,-0.012259,-0.002856
-0.006067,-0.013424,-0.002591
-0.004248,-0.015909,-0.003424
-0.004975,-0.017617,-0.00256
-0.006941,-0.017235,-0.001708
-0.008012,-0.016029,-0.002491
-0.007928,-0.015764,-0.002798
-0.00738,-0.015766,-0.002259
-0.007614,-0.016012,-0.001518
-0.007332,-0.017279,-6.1e-05
-0.005933,-0.016933,0.001002
-0.003903,-0.015245,0.001446
-0.003224,-0.014944,0.002107
-0.001904,-0.014289,0.003631
-0.001033,-0.0138,0.003284
-0.001885,-0.014725,0.000693
-0.001932,-0.015659,-0.003857
-0.000325,-0.014714,-0.006712
0.002236,-0.013825,-0.005651
0.005515,-0.01426,-0.004672
0.006739,-0.014113,-0.004863
0.006392,-0.01346,-0.0045
0.00655,-0.012362,-0.00356
0.00466,-0.010498,-0.003193
0.00373,-0.009127,-0.004746
0.003835,-0.008605,-0.005354
0.002159,-0.009185,-0.004125
0.000335,-0.010064,-0.002861
-0.001911,-0.0123,-0.001125
-0.00281,-0.012974,-0.000606
-0.002587,-0.013334,-0.00143
-0.003254,-0.013893,-0.002501
-0.00419,-0.014601,-0.002665
-0.003757,-0.014307,-0.002205
-0.002663,-0.013584,-0.002011
-0.001792,-0.01336,-0.00172
-0.001504,-0.013761,-0.000727
-0.00226,-0.013685,0.000777
-0.003876,-0.013457,0.000635
-0.005394,-0.012687,-0.000395
-0.005696,-0.012263,-0.0005
-0.004554,-0.014349,-0.001584
-0.005005,-0.016799,-0.003536
-0.006,-0.018356,-0.003668
-0.004338,-0.018806,-0.003302
-0.001857,-0.019858,-0.002637
-0.000424,-0.021254,-0.002715
0.001367,-0.021491,-0.002787
0.002414,-0.019739,-0.001861
0.002175,-0.017093,-0.00177
0.00266,-0.01534,-0.003185
0.003627,-0.014156,-0.003571
0.004296,-0.013504,-0.002092
0.00219,-0.013891,7e-06
0.000342,-0.0136,0.002017
0.000652,-0.013177,0.002463
0.000487,-0.014265,0.001879
0.000328,-0.013823,0.001895
9.5e-05,-0.011216,0.001074
-0.000757,-0.007555,-6.8e-05
-0.001911,-0.00554,-0.000904
-0.002859,-0.006405,-0.002719
-0.002451,-0.007317,-0.003519
-0.001073,-0.007273,-0.002862
0.001733,-0.006723,-0.002016
0.003061,-0.006953,-0.003214
0.002004,-0.008687,-0.005901
-0.000737,-0.008899,-0.007991
-0.001498,-0.009277,-0.005757
-0.000991,-0.010648,-0.00245
0.000593,-0.011121,-0.001935
0.001139,-0.01075,-0.002743
0.001674,-0.011855,-0.003743
0.001676,-0.013366,-0.00285
0.00069,-0.013198,-0.001439
-0.000852,-0.012591,-0.001105
-0.001997,-0.012797,-0.00138
-0.001709,-0.013397,-0.001045
-0.000342,-0.014375,-0.002393
0.000717,-0.016315,-0.004573
0.000837,-0.015846,-0.004863
-0.001499,-0.013766,-0.002867
-0.004172,-0.011848,-0.001961
-0.003613,-0.010958,-0.003726
-0.002223,-0.011692,-0.004749
-0.00289,-0.013948,-0.004174
-0.004569,-0.016044,-0.003376
-0.004904,-0.016337,-0.002341
-0.004535,-0.014047,-0.000891
-0.004925,-0.011922,0.001014
-0.005652,-0.012476,0.001409
-0.00513,-0.012057,-0.000816
-0.004868,-0.010386,-0.003277
-0.005462,-0.012148,-0.004297
-0.003932,-0.015812,-0.004196
-0.000156,-0.01689,-0.003293
0.000173,-0.015003,-0.001247
-0.001082,-0.012447,-0.000694
-0.000326,-0.010605,-0.00133
5.7e-05,-0.00873,-0.000403
-0.001852,-0.007655,0.000375
-0.003017,-0.006907,-0.000644
-0.002537,-0.005099,-0.002154
-0.000858,-0.004403,-0.002588
-0.000399,-0.00583,-0.001098
-0.002588,-0.006637,-0.000118
-0.004899,-0.005434,-0.000849
-0.002576,-0.004888,-0.003028
-0.000163,-0.00621,-0.005362
-0.00125,-0.008725,-0.006935
-0.002177,-0.011208,-0.007473
-0.001592,-0.013066,-0.006945
0.000997,-0.013997,-0.006639
0.001995,-0.014931,-0.007506
0.000566,-0.014054,-0.008107
-0.00188,-0.012918,-0.005567
-0.003645,-0.013327,-0.002199
-0.004309,-0.012698,-0.000958
-0.002134,-0.011267,-9e-05
0.000977,-0.012402,0.001253
0.000622,-0.016186,0.000627
-0.001112,-0.020159,-0.000634
-0.002203,-0.02249,-0.000615
-0.002799,-0.022209,0.00079
-0.002134,-0.021076,0.001854
-0.001004,-0.019884,0.001925
-0.000837,-0.019865,0.001855
-0.001919,-0.020441,0.001033
-0.002758,-0.020489,4e-05
-0.002186,-0.019933,-0.001959
0.000596,-0.020274,-0.00348
0.002554,-0.020054,-0.004572
0.001553,-0.018378,-0.003303
-0.001249,-0.017669,0.000992
-0.003386,-0.016391,0.002155
-0.004195,-0.015101,-0.001005
-0.00507,-0.017124,-0.002607
-0.005292,-0.019198,-0.001315
-0.003048,-0.018082,0.001211
-0.000172,-0.014972,0.00291
-0.000659,-0.011828,0.003801
-0.001142,-0.011368,0.002502
0.000805,-0.01219,-0.000203
0.003468,-0.012582,-0.002634
0.004479,-0.011704,-0.004303
0.002795,-0.010123,-0.005075
-0.000543,-0.008788,-0.005473
-0.00148,-0.008254,-0.005839
-0.001021,-0.010164,-0.005229
-0.00082,-0.011217,-0.00485
-9.1e-05,-0.01047,-0.004309
0.000375,-0.009626,-0.003799
-3.1e-05,-0.009646,-0.003525
0.000105,-0.008839,-0.003747
-0.000259,-0.009546,-0.004196
-0.000337,-0.011303,-0.004036
-0.001052,-0.012013,-0.00386
-0.001309,-0.013451,-0.004177
-0.001048,-0.015684,-0.004011
-0.001146,-0.01758,-0.00334
-0.001451,-0.018962,-0.004043
-0.00152,-0.019288,-0.003735
-0.00217,-0.017801,-0.001849
-0.004225,-0.015666,-0.000556
-0.004081,-0.014372,-0.001169
-0.001079,-0.015154,-0.001143
0.000711,-0.016248,-0.001002
0.000917,-0.017317,-0.000888
-8e-05,-0.018486,-0.000147
-0.00137,-0.019042,0.000932
-0.002232,-0.017389,0.002141
-0.002528,-0.015158,0.002013
-0.002878,-0.014857,0.000691
-0.003442,-0.015069,-0.000623
-0.004109,-0.014815,-0.002323
-0.00437,-0.014925,-0.004135
-0.004829,-0.014909,-0.004845
-0.004157,-0.013835,-0.004203
-0.003461,-0.013192,-0.002636
-0.002275,-0.013588,-0.001856
-0.001774,-0.013214,-0.002623
-0.002705,-0.011597,-0.003602
-0.003255,-0.009207,-0.004674
-0.003093,-0.007696,-0.006137
-0.001365,-0.007981,-0.005825
0.00066,-0.008218,-0.004029
0.00015,-0.008361,-0.00326
-0.001325,-0.008529,-0.004048
-0.000877,-0.007948,-0.005124
-0.000183,-0.008381,-0.004874
-0.000846,-0.008955,-0.005642
-0.001191,-0.009606,-0.007028
-0.000936,-0.009839,-0.006619
-0.000137,-0.009558,-0.005812
-0.000539,-0.009948,-0.006284
-0.002419,-0.010861,-0.006199
-0.003507,-0.01143,-0.004754
-0.001858,-0.011274,-0.003736
-9.5e-05,-0.011422,-0.003743
-0.001089,-0.012563,-0.003123
-0.001496,-0.013753,-0.002029
0.000852,-0.014814,-0.002
0.001842,-0.017687,-0.001205
5.5e-05,-0.018379,0.001703
-0.00268,-0.016294,0.002713
-0.004246,-0.016455,0.00272
-0.003869,-0.017298,0.00202
-0.003097,-0.017446,0.001167
-0.004853,-0.018414,0.000582
-0.005737,-0.019936,0.001465
-0.004587,-0.019727,0.001896
-0.003462,-0.017904,0.000868
-0.003166,-0.017062,0.001925
-0.003212,-0.015643,0.004072
-0.003451,-0.013714,0.003973
-0.002929,-0.012798,0.00261
-0.002493,-0.012431,0.001189
-0.00248,-0.01368,-0.000405
-0.001657,-0.014974,-0.00119
-0.001811,-0.01465,-0.001018
-0.001962,-0.012513,0.000372
-0.001163,-0.01088,-9.7e-05
-0.000927,-0.011478,-0.003526
-0.003613,-0.012662,-0.006229
-0.007895,-0.011284,-0.005152
-0.008811,-0.008775,-0.003868
-0.005767,-0.007945,-0.004058
-0.003933,-0.008149,-0.005293
-0.003968,-0.008238,-0.006278
-0.003568,-0.008533,-0.006063
-0.002597,-0.008253,-0.005527
-0.00083,-0.008803,-0.005489
-0.000353,-0.011353,-0.0064
0.00066,-0.012508,-0.006035
0.002763,-0.010149,-0.003635
0.00397,-0.010365,-0.001855
0.003417,-0.012405,-0.003125
0.000263,-0.013149,-0.004912
-0.001908,-0.013111,-0.004353
-0.000912,-0.013427,-0.002926
0.000342,-0.014395,-0.001469
-0.000376,-0.017149,-0.00118
-0.000791,-0.019507,-0.002717
-0.000194,-0.019118,-0.003032
-0.001603,-0.019071,-0.001382
-0.003289,-0.020443,0.000306
-0.003072,-0.022264,0.000588
-0.000396,-0.021182,-0.00171
0.001204,-0.018516,-0.001994
0.000552,-0.017328,-0.001607
-0.000832,-0.018333,-0.000988
-0.002135,-0.018555,0.000287
-0.002935,-0.016527,0.001288
-0.003342,-0.012372,0.00027
-0.003464,-0.009076,-0.003846
-0.002068,-0.007652,-0.006642
-0.000846,-0.005796,-0.004946
-0.001217,-0.004597,-0.002814
-0.001573,-0.006926,-0.001734
-0.002377,-0.008516,-0.002304
-0.001976,-0.007929,-0.00268
-0.000647,-0.005812,-0.000957
0.0004,-0.0039,0.001915
0.000723,-0.002855,0.001716
0.000868,-0.003551,-9.2e-05
0.00018,-0.006984,-0.001048
-0.000141,-0.008811,-0.000824
-0.000715,-0.005891,-0.000798
-0.002807,-0.00319,-0.001128
-0.00384,-0.00377,-0.001637
-0.0045,-0.005548,-0.002519
-0.006465,-0.00558,-0.004238
-0.007091,-0.006613,-0.004601
-0.006352,-0.009662,-0.002835
-0.005314,-0.013071,-0.002382
-0.005019,-0.015212,-0.002974
-0.005918,-0.01733,-0.003638
-0.006562,-0.018795,-0.004193
-0.005787,-0.01858,-0.003407
-0.005566,-0.018174,-0.002626
-0.004646,-0.017394,-0.002769
-0.003435,-0.016973,-0.003395
-0.002865,-0.017558,-0.003381
-0.004328,-0.018259,-0.002869
-0.005415,-0.018988,-0.001123
-0.002294,-0.019293,0.000582
0.003371,-0.019189,0.001293
0.007021,-0.018277,0.001937
0.00602,-0.017912,0.002066
0.002951,-0.019871,0.001716
0.001463,-0.021234,0.001505
0.000592,-0.020637,0.000959
-0.000859,-0.018722,0.000919
-0.002714,-0.01677,0.002005
-0.003425,-0.017332,0.003516
-0.00298,-0.018186,0.003868
-0.001743,-0.016602,0.001995
-0.001534,-0.015598,-0.000159
-0.000782,-0.014737,-0.001632
-0.00063,-0.013962,-0.001007
-0.002452,-0.013238,-0.001268
-0.003152,-0.012829,-0.002476
-0.002037,-0.011774,-0.003686
-0.002908,-0.010747,-0.005569
-0.0053,-0.009983,-0.007057
-0.007194,-0.009087,-0.006126
-0.007253,-0.009802,-0.005149
-0.004966,-0.010845,-0.005158
-0.000901,-0.010956,-0.005068
0.003234,-0.010301,-0.00652
0.003882,-0.010252,-0.007204
0.0021,-0.011427,-0.004959
0.000214,-0.012379,-0.003006
-0.002832,-0.013181,-0.004373
-0.004887,-0.012856,-0.004776
-0.005449,-0.012905,-0.003299
-0.005981,-0.014157,-0.002857
-0.004766,-0.014922,-0.003172
-0.003204,-0.014677,-0.003528
-0.002983,-0.015576,-0.0031
-0.004056,-0.019006,-0.002503
-0.005338,-0.021559,-0.002216
-0.006085,-0.02172,-0.002185
-0.006391,-0.021016,-0.003107
-0.006855,-0.021665,-0.004199
-0.006005,-0.022173,-0.003147
-0.002483,-0.020128,-0.000562
0.000735,-0.017723,-0.001201
0.00215,-0.01687,-0.002425
0.003904,-0.015982,-0.001743
0.005229,-0.014659,-0.000643
0.004918,-0.014077,1.2e-05
0.00423,-0.014345,-0.000631
0.002943,-0.015924,-0.003175
0.00217,-0.016389,-0.005692
0.001308,-0.014218,-0.005796
0.001792,-0.014371,-0.004374
0.002792,-0.015712,-0.002417
0.003522,-0.013472,0.000205
0.002556,-0.009186,0.001388
2.2e-05,-0.006293,0.000116
-0.002226,-0.006698,-0.001049
-0.004838,-0.007293,-0.001906
-0.005554,-0.007297,-0.002276
-0.003141,-0.006755,-0.001544
-0.000866,-0.005076,-0.000834
-0.000144,-0.003584,-0.001476
4.4e-05,-0.004346,-0.003018
-6.8e-05,-0.00658,-0.003922
-0.001759,-0.008029,-0.004449
-0.003852,-0.009484,-0.005159
-0.005225,-0.01022,-0.004195
-0.004031,-0.010592,-0.003987
-0.002157,-0.010656,-0.005605
-0.001935,-0.011224,-0.006235
-0.002322,-0.010469,-0.006873
-0.001975,-0.009268,-0.006519
-0.001626,-0.010515,-0.004604
-0.000622,-0.012027,-0.002423
0.000642,-0.012731,-0.001243
0.000694,-0.014893,-0.000179
0.000357,-0.016259,-7e-05
0.000766,-0.015784,-0.000723
0.002008,-0.015295,-0.000831
0.00108,-0.015935,0.000762
-0.001925,-0.015895,0.002204
-0.003241,-0.015086,0.002582
-0.000618,-0.016247,0.003012
0.002513,-0.016799,0.001613
0.003723,-0.016264,-0.000101
0.002325,-0.016163,-0.000481
-0.000647,-0.015606,-0.001386
-0.001265,-0.015106,-0.002656
-2.1e-05,-0.015342,-0.003012
-6e-05,-0.015746,-0.002677
-0.001272,-0.01537,-0.001988
-0.001203,-0.014009,-0.002139
-0.000269,-0.011731,-0.001865
-0.00148,-0.010257,-0.002354
-0.002439,-0.00996,-0.000718
-0.002985,-0.010998,0.000836
-0.001936,-0.01099,0.000769
-0.001478,-0.008646,0.000402
-0.001914,-0.005869,-0.000881
-0.002039,-0.005571,-0.0038
-0.001197,-0.006888,-0.005375
-0.001598,-0.008163,-0.005144
-0.003776,-0.008768,-0.003751
-0.004254,-0.008664,-0.002694
-0.003545,-0.008272,-0.003879
-0.003771,-0.009577,-0.004499
-0.005182,-0.011818,-0.003401
-0.005999,-0.013793,-0.003871
-0.005758,-0.014255,-0.004197
-0.00578,-0.014249,-0.004041
-0.005313,-0.013871,-0.003273
-0.004946,-0.013274,-0.002573
-0.006041,-0.013996,-0.001478
-0.005698,-0.015521,-0.001654
-0.005233,-0.016119,-0.002743
-0.0037,-0.017136,-0.001818
-0.001939,-0.01879,0.000169
-0.002912,-0.019706,-0.001015
-0.003532,-0.019509,-0.004225
-0.002564,-0.01716,-0.005629
-0.001209,-0.014927,-0.003536
0.000277,-0.017322,-0.001972
-0.001358,-0.01967,-0.001419
-0.004683,-0.018833,-0.000983
-0.006574,-0.018283,-0.001712
-0.005404,-0.017689,-0.002177
-0.002144,-0.016309,-0.001889
0.000387,-0.01587,-0.000986
0.000681,-0.015865,-0.000904
-0.000694,-0.016849,-0.001729
-0.001621,-0.017031,-0.0014
-1.4e-05,-0.0156,-0.000896
0.004323,-0.014072,-0.002033
0.005872,-0.017482,-0.001537
0.002045,-0.019227,-0.000624
-0.001143,-0.017038,0.000613
-0.002204,-0.01472,4.9e-05
-0.00026,-0.013118,-0.001113
0.000871,-0.010689,-0.003737
0.000691,-0.008752,-0.005543
-0.000821,-0.006748,-0.004569
-0.002566,-0.005318,-0.0026
-0.002687,-0.004972,-0.002473
-0.001384,-0.007037,-0.004859
0.000141,-0.009712,-0.006356
0.001668,-0.010241,-0.00541
0.000432,-0.009618,-0.002101
-0.002824,-0.008564,0.001836
-0.004399,-0.006321,0.00494
-0.00436,-0.005636,0.005626
-0.003254,-0.006396,0.003608
-0.00206,-0.007592,0.000421
-0.001994,-0.009638,-0.003166
-0.003124,-0.011503,-0.005243
-0.005167,-0.014334,-0.005876
-0.004862,-0.017965,-0.005056
-0.002434,-0.019248,-0.002242
-0.000248,-0.019796,0.00031
0.000419,-0.021339,0.000572
0.000377,-0.021951,-0.000245
0.000153,-0.020378,-0.00162
-0.000201,-0.018459,-0.00147
-0.001788,-0.018481,-0.000127
-0.002313,-0.020031,0.000101
-0.000969,-0.02014,-0.000769
0.000967,-0.01919,-0.003299
0.001356,-0.017755,-0.004727
0.000791,-0.016789,-0.003812
-0.000611,-0.016435,-0.002181
-0.001641,-0.015857,-0.002672
-0.001394,-0.014907,-0.004885
-0.000896,-0.013168,-0.006064
-0.001996,-0.01233,-0.004925
-0.003716,-0.011632,-0.003306
-0.003546,-0.011915,-0.001513
-0.002167,-0.012297,-0.001991
-0.002445,-0.010327,-0.003907
-0.003803,-0.007297,-0.003976
-0.003218,-0.004811,-0.00309
-0.002244,-0.00423,-0.003102
-0.003148,-0.00576,-0.003821
-0.003416,-0.00688,-0.003937
-0.00281,-0.006091,-0.0028
-0.002501,-0.005091,-0.002628
-0.001544,-0.005612,-0.004588
0.000207,-0.00642,-0.005479
0.000191,-0.007736,-0.00509
-0.001428,-0.010468,-0.005198
-0.004267,-0.010922,-0.005116
-0.005896,-0.01109,-0.002826
-0.006256,-0.011437,-0.002602
-0.006624,-0.012418,-0.003072
-0.007231,-0.01321,-0.003405
-0.006121,-0.014096,-0.004276
-0.004485,-0.016059,-0.005907
-0.003476,-0.018081,-0.006406
-0.003833,-0.017314,-0.003762
-0.003714,-0.016136,-0.001345
-0.001585,-0.016215,-0.001353
5e-06,-0.016558,-0.001803
-0.000309,-0.015698,-0.001685
-0.000158,-0.014594,-0.00018
0.002058,-0.017818,0.001157
0.002894,-0.020354,0.001056
0.002968,-0.02065,0.002686
0.00287,-0.020393,0.003658
0.00259,-0.019007,0.0027
0.00205,-0.017175,0.001693
0.001397,-0.016968,0.000649
-0.000562,-0.016987,-0.001262
-0.002699,-0.015117,-0.002234
-0.001935,-0.013146,-0.001487
-0.001659,-0.012216,-0.001032
-0.00241,-0.011634,-0.002053
-0.003498,-0.009493,-0.003468
-0.002809,-0.007202,-0.004535
-0.002044,-0.006923,-0.00464
-0.003818,-0.007305,-0.005601
-0.005606,-0.007509,-0.005527
-0.00681,-0.006433,-0.003922
-0.007269,-0.005543,-0.002481
-0.00786,-0.006742,-0.002264
-0.007496,-0.008618,-0.001606
-0.005498,-0.008113,-0.000902
-0.004595,-0.006967,-0.000368
-0.004519,-0.008661,0.001393
-0.002551,-0.010237,0.003132
0.001243,-0.010556,0.003667
0.003176,-0.011918,0.002524
0.000998,-0.011409,0.001583
-0.001572,-0.009239,0.002739
-0.001611,-0.00967,0.003692
-0.000706,-0.011794,0.001979
-0.000569,-0.013767,0.000297
-0.001095,-0.015537,-0.000257
-0.001335,-0.016537,-0.000432
-0.002316,-0.017087,-0.000965
-0.002841,-0.01773,-0.002294
-0.001503,-0.019203,-0.003718
-3.8e-05,-0.021271,-0.004986
-0.00029,-0.020768,-0.005499
-0.001452,-0.019026,-0.002966
-0.002058,-0.019664,-0.000142
-0.002819,-0.020232,0.000555
-0.002547,-0.019025,0.001009
-0.001442,-0.015634,0.000961
0.000149,-0.0141,0.000953
0.001462,-0.01538,0.000627
0.001992,-0.016766,-0.00129
0.001176,-0.016636,-0.002707
-0.001364,-0.013905,-0.00285
-0.004101,-0.011877,-0.002975
-0.004885,-0.012105,-0.003408
-0.004993,-0.01339,-0.003245
-0.005517,-0.01484,-0.002565
-0.005691,-0.014269,-0.003691
-0.006608,-0.011802,-0.004809
-0.007005,-0.010261,-0.006356
-0.005225,-0.010409,-0.007255
-0.002248,-0.00986,-0.007236
-0.00073,-0.007699,-0.006326
-0.000489,-0.005539,-0.005
0.000696,-0.005136,-0.004185
0.002455,-0.006428,-0.003068
0.001614,-0.006719,-0.003631
-0.001087,-0.00617,-0.005933
-0.001454,-0.006727,-0.00682
0.000161,-0.009258,-0.005841
0.000484,-0.012153,-0.005865
0.00012,-0.01255,-0.005495
-0.00176,-0.011531,-0.003936
-0.003616,-0.011198,-0.001421
-0.003242,-0.012055,0.000288
-0.002561,-0.013645,-0.001171
-0.001757,-0.015857,-0.003599
-0.001087,-0.01687,-0.004702
-0.000854,-0.017066,-0.004048
-0.001246,-0.018023,-0.002684
-0.001879,-0.01929,-0.000885
-0.00187,-0.020157,0.000575
-0.00186,-0.020455,0.002123
-0.002916,-0.019856,0.002352
-0.005546,-0.019305,0.000175
-0.004387,-0.018669,-0.001257
2.3e-05,-0.019108,-7.2e-05
0.003568,-0.018524,5.9e-05
0.00451,-0.017054,-0.002102
0.003272,-0.017224,-0.003401
0.002803,-0.016603,-0.001852
0.003027,-0.01525,0.000871
0.001455,-0.013911,0.001649
-0.000379,-0.012422,0.000841
1.6e-05,-0.01229,-0.000363
0.001575,-0.012557,-0.001082
0.002283,-0.012143,-0.000431
0.001556,-0.011922,0.000954
0.000481,-0.011881,0.00046
0.000142,-0.01069,-0.000914
-0.000209,-0.008466,-0.001384
-0.000499,-0.006548,-0.000974
-0.002074,-0.006822,-0.001616
-0.005137,-0.007999,-0.002186
-0.006557,-0.009216,-0.002661
-0.005978,-0.009384,-0.004586
-0.00597,-0.008808,-0.007072
-0.007142,-0.008091,-0.007306
-0.007305,-0.008146,-0.006263
-0.006351,-0.010506,-0.005904
-0.00591,-0.012772,-0.006489
-0.006199,-0.012593,-0.004881
-0.005937,-0.011743,-0.00286
-0.006655,-0.013929,-0.003274
-0.007472,-0.014571,-0.005024
-0.007559,-0.012467,-0.006118
-0.006489,-0.01027,-0.005993
-0.004746,-0.010697,-0.00577
-0.003862,-0.01348,-0.004072
-0.00272,-0.015332,-0.00154
-0.000633,-0.015947,-0.000274
0.001792,-0.016483,-0.000917
0.002476,-0.017438,-0.001171
0.001339,-0.017326,-0.001179
-0.000288,-0.017288,-0.002781
3.8e-05,-0.017685,-0.003619
0.000718,-0.019223,-0.001178
-3.1e-05,-0.01802,0.001565
0.000792,-0.015276,0.001247
0.001858,-0.016499,-0.001175
0.002033,-0.019304,-0.002376
0.000491,-0.019165,-0.001302
-0.00167,-0.018368,-0.000238
-0.001538,-0.018404,-0.002278
-0.000245,-0.016932,-0.005994
0.000701,-0.01368,-0.008227
-0.000169,-0.011779,-0.006278
-0.002185,-0.010965,-0.004013
-0.004538,-0.009568,-0.004192
-0.005071,-0.009493,-0.00477
-0.003267,-0.00844,-0.003478
-0.001707,-0.007831,-0.003261
-0.001855,-0.008126,-0.003427
-0.002209,-0.007641,-0.002941
-0.003232,-0.006921,-0.002519
-0.004205,-0.007066,-0.003123
-0.004608,-0.007554,-0.003397
-0.003521,-0.007107,-0.002964
-0.002903,-0.007996,-0.00335
-0.003393,-0.009894,-0.003252
-0.001155,-0.011132,-0.002
0.000464,-0.013501,-0.000877
-0.001018,-0.013912,-0.001167
-0.000966,-0.01322,-0.001009
0.000382,-0.012836,-0.001283
-0.001431,-0.012375,-0.002473
-0.002976,-0.013203,-0.002017
-0.001419,-0.01653,-0.000797
0.00056,-0.018877,-0.000163
0.000739,-0.019223,-0.00117
0.000914,-0.019097,-0.001954
0.000245,-0.018962,-0.0026
-0.002261,-0.019622,-0.004027
-0.003843,-0.021085,-0.005218
-0.004039,-0.023955,-0.0046
-0.002514,-0.024507,-0.002186
-0.001519,-0.022431,0.00166
-0.001403,-0.01898,0.003721
-0.000738,-0.01571,0.003559
-0.000129,-0.014316,0.002327
0.000264,-0.01425,0.001716
-0.00012,-0.013635,0.001814
-0.00086,-0.013087,0.003042
-0.000373,-0.01233,0.003471
0.000717,-0.010691,0.002736
0.000892,-0.009698,0.002772
-0.001213,-0.009296,0.00203
-0.003607,-0.007744,0.000661
-0.004675,-0.007228,0.000174
-0.003777,-0.008891,0.000471
-0.001541,-0.008789,-0.000467
-0.000422,-0.008042,-0.000168
-0.000931,-0.009117,-0.000254
-0.001225,-0.01007,-0.000615
-0.001961,-0.00967,-0.001112
-0.003249,-0.009887,-0.002154
-0.003792,-0.010984,-0.003875
-0.003223,-0.012422,-0.005858
-0.002388,-0.01281,-0.006547
-0.001656,-0.011323,-0.005245
-0.001515,-0.01034,-0.004011
-0.001661,-0.010857,-0.002931
-0.001851,-0.010914,-0.002516
-0.005458,-0.00926,-0.003163
-0.008852,-0.009959,-0.002658
-0.007702,-0.012547,-0.001215
-0.003623,-0.013249,-0.000466
0.000114,-0.012175,-0.001605
0.003119,-0.012417,-0.002426
0.004714,-0.01482,-0.002429
0.004463,-0.017867,-0.002055
0.002644,-0.019414,-0.001287
0.000102,-0.018275,-1.8e-05
-0.002949,-0.016019,0.001429
-0.00443,-0.015607,0.002124
-0.002912,-0.017061,0.001218
0.000882,-0.017241,-0.000218
0.002493,-0.015781,-0.001598
0.002233,-0.014406,-0.002383
0.002701,-0.014439,-0.002601
0.002899,-0.015607,-0.003413
0.001613,-0.017358,-0.005208
0.000251,-0.01756,-0.006053
-0.000453,-0.016468,-0.005871
-0.001482,-0.014579,-0.005878
-0.002895,-0.012583,-0.006813
-0.00402,-0.011956,-0.008003
-0.005325,-0.011773,-0.008364
-0.006018,-0.010357,-0.007932
-0.00486,-0.009564,-0.005543
-0.000554,-0.009162,-0.003479
0.003416,-0.008025,-0.002852
0.003125,-0.006738,-0.003078
0.000547,-0.006504,-0.004451
-0.001205,-0.008086,-0.005999
-0.002018,-0.009712,-0.005467
-0.002957,-0.008867,-0.004187
-0.003277,-0.007092,-0.003264
-0.003034,-0.007218,-0.001517
-0.003337,-0.007799,-0.000959
-0.004083,-0.006666,-0.002509
-0.004185,-0.006817,-0.004637
-0.004047,-0.008822,-0.003907
-0.003168,-0.010598,-0.00218
-0.002826,-0.011437,-0.002259
-0.00254,-0.011979,-0.003065
-0.00265,-0.01476,-0.004073
-0.002789,-0.018397,-0.004083
-0.003431,-0.019637,-0.003182
-0.002714,-0.018408,-0.000893
-0.001481,-0.017813,0.000874
-1e-05,-0.018273,0.00065
0.002431,-0.018349,-0.00049
0.002678,-0.017642,-0.001879
0.000229,-0.017743,-0.003325
-0.00032,-0.018875,-0.003525
0.00033,-0.020978,-0.001519
0.000459,-0.021158,0.000887
-0.000368,-0.018794,0.001559
-0.001467,-0.016303,0.00192
-0.001201,-0.013913,0.001983
-0.001391,-0.012005,0.001512
-0.003468,-0.011582,0.001212
-0.005209,-0.012274,-0.000199
-0.004553,-0.013718,-0.001078
-0.003186,-0.013264,-0.000893
-0.001991,-0.011888,-0.001461
-0.003034,-0.012126,-0.002087
-0.0053,-0.012255,-0.001887
-0.004569,-0.012895,-0.002004
-0.002142,-0.012564,-0.003002
-0.000853,-0.011728,-0.00239
-0.001104,-0.011368,-0.001158
-0.001722,-0.010103,-0.00038
-0.002298,-0.009346,-0.000558
-0.002043,-0.009701,-0.001081
-0.002011,-0.010067,-0.001676
-0.002364,-0.01005,-0.001402
-0.002416,-0.010116,-0.000646
-0.001758,-0.011178,-0.000925
-0.002553,-0.012106,-0.001955
-0.005133,-0.011396,-0.002754
-0.00601,-0.011246,-0.002543
-0.004868,-0.012416,-0.001681
-0.003041,-0.013237,-0.00183
-0.003181,-0.012776,-0.001683
-0.0029,-0.012069,-0.001786
-0.001148,-0.013575,-0.001987
0.00099,-0.017183,-0.001014
0.001556,-0.020043,5.2e-05
0.000995,-0.020983,0.000339
0.000648,-0.019494,-0.000162
-0.000729,-0.018352,-0.002507
-0.001462,-0.020029,-0.004026
-0.000153,-0.021467,-0.003102
0.001365,-0.019867,-0.002855
0.001828,-0.018346,-0.003496
0.003208,-0.018313,-0.00421
0.003301,-0.018817,-0.004492
-0.000562,-0.018689,-0.004107
-0.004166,-0.01733,-0.00382
-0.004641,-0.016616,-0.003752
-0.003458,-0.015268,-0.002582
-0.002365,-0.013379,-0.002665
-0.001666,-0.012888,-0.003189
-0.000768,-0.013995,-0.002137
0.000954,-0.013968,-9.7e-05
0.001778,-0.012459,-1.5e-05
0.00127,-0.009523,-0.00188
0.00056,-0.007507,-0.002959
-5e-06,-0.007556,-0.00252
-0.000113,-0.006473,-0.002101
0.000645,-0.005442,-0.003284
0.001812,-0.004793,-0.003565
0.003044,-0.004236,-0.002172
0.002664,-0.003773,-0.001406
0.000206,-0.005087,-0.001287
-0.001436,-0.007598,-0.001095
-0.002445,-0.010184,-0.002164
-0.002627,-0.010634,-0.002633
-0.001778,-0.009414,-0.001772
-0.003412,-0.010017,-0.002601
-0.005952,-0.010836,-0.003599
-0.00508,-0.011231,-0.002405
-0.003604,-0.01196,-0.000462
-0.005749,-0.013311,0.000651
-0.007436,-0.015507,0.000321
-0.006487,-0.017892,-0.00059
-0.004766,-0.019916,-0.00056
-0.003112,-0.020137,0.000202
-0.003489,-0.018995,0.000505
-0.005826,-0.018481,0.000688
-0.00773,-0.019684,0.00063
-0.007984,-0.021252,3.1e-05
-0.007633,-0.021393,-0.000687
-0.0047,-0.020461,-0.000414
-0.000941,-0.018761,-0.000332
0.001509,-0.018961,0.000329
0.00267,-0.017642,0.001587
0.002447,-0.015508,0.002488
0.002049,-0.015167,0.001984
0.002085,-0.01574,0.000422
0.001597,-0.014664,-0.000412
0.001325,-0.013589,-0.000545
0.002375,-0.014122,-0.000512
0.003191,-0.014894,-0.00104
0.002295,-0.01411,-0.001061
0.001227,-0.012596,-0.001999
-8.4e-05,-0.011442,-0.006301
-0.001972,-0.01094,-0.009012
-0.002186,-0.00963,-0.008744
-0.002091,-0.007809,-0.008701
0.000341,-0.005925,-0.007815
0.001699,-0.006196,-0.007034
0.000395,-0.006225,-0.006211
-0.002057,-0.006419,-0.007102
-0.003804,-0.007168,-0.00971
-0.004028,-0.008264,-0.010429
-0.00331,-0.010842,-0.009344
-0.003057,-0.013188,-0.007318
-0.003197,-0.012719,-0.004375
-0.002531,-0.010937,-0.001964
-0.001928,-0.009875,-0.003073
-0.002304,-0.01034,-0.006152
-0.002191,-0.012764,-0.008386
-0.00013,-0.014359,-0.00713
0.000407,-0.013563,-0.005472
0.001175,-0.013541,-0.002981
0.00289,-0.01521,-0.002269
0.004321,-0.016972,-0.002901
0.003713,-0.018233,-0.004032
0.001908,-0.019298,-0.004538
0.000578,-0.02005,-0.00356
-0.000276,-0.020183,-0.002698
0.000361,-0.018052,-0.002754
0.002174,-0.016587,-0.002184
0.003261,-0.016913,0.00112
0.003521,-0.015649,0.002152
0.003919,-0.014247,0.001166
0.005684,-0.013377,0.000608
0.006571,-0.014599,5.3e-05
0.004255,-0.015003,-0.000554
0.001178,-0.013723,-0.000552
0.000775,-0.012374,-0.000548
0.000853,-0.012338,-0.001153
-0.000147,-0.012949,-0.000776
-0.001198,-0.013903,-0.00037
-0.00257,-0.013316,-0.003336
-0.004583,-0.011892,-0.00648
-0.005466,-0.011286,-0.006631
-0.004609,-0.011875,-0.003751
-0.004864,-0.010238,-0.001685
-0.006208,-0.008902,-0.003814
-0.006015,-0.008939,-0.005448
-0.004943,-0.009125,-0.004304
-0.005994,-0.008823,-0.001966
-0.008815,-0.009377,-0.000688
-0.010183,-0.010047,4.4e-05
-0.009557,-0.01007,0.000606
-0.008637,-0.009701,0.000829
-0.007444,-0.008903,0.000849
-0.007791,-0.00905,0.00182
-0.009558,-0.010328,0.001514
-0.010202,-0.010869,-0.000306
-0.007985,-0.01188,-0.000495
-0.006209,-0.012709,-0.000215
-0.00623,-0.011441,-0.001347
-0.006407,-0.010018,-0.002924
-0.006677,-0.009374,-0.002703
-0.006657,-0.01101,-0.000576
-0.004516,-0.012935,0.001766
-0.002678,-0.013743,0.002923
-0.003876,-0.014663,0.001082
-0.005015,-0.015627,-0.002411
-0.004498,-0.015835,-0.003045
-0.002894,-0.016421,-0.000781
-0.001092,-0.019616,0.001413
-0.000681,-0.020607,0.001515
0.000329,-0.018306,-0.000487
0.00197,-0.015524,-0.002204
0.003469,-0.014166,-0.002018
0.002973,-0.012442,0.000336
0.002177,-0.012412,0.002044
0.002187,-0.013594,0.001607
0.002252,-0.012707,0.001224
0.001921,-0.01106,0.000656
0.000318,-0.010576,0.001306
-0.001727,-0.010796,0.001392
-0.001488,-0.01215,-0.001294
-0.000895,-0.013135,-0.003558
-0.002629,-0.012517,-0.002959
-0.005429,-0.012901,-0.00286
-0.007258,-0.015238,-0.005255
-0.008013,-0.014276,-0.007096
-0.005803,-0.012612,-0.007406
-0.002578,-0.01095,-0.007563
-0.000681,-0.01001,-0.007154
-0.000736,-0.009772,-0.006049
-0.001109,-0.009482,-0.005207
0.001025,-0.009126,-0.004878
0.003565,-0.009312,-0.004962
0.001851,-0.011103,-0.003517
-0.002294,-0.013177,-0.000499
-0.002046,-0.014742,0.00073
0.00094,-0.014317,-0.000854
0.002188,-0.014268,-0.003029
0.001025,-0.015034,-0.003825
-0.00093,-0.016428,-0.003537
-0.000849,-0.017696,-0.004033
0.002105,-0.018934,-0.006277
0.003027,-0.017539,-0.007085
0.001741,-0.015499,-0.006742
0.001171,-0.014854,-0.005671
0.001872,-0.014472,-0.002895
0.002459,-0.013377,-0.000608
0.001282,-0.012426,-0.000177
-0.000257,-0.012255,0.001339
9.3e-05,-0.012846,0.00212
-0.000155,-0.014377,0.0009
-0.002453,-0.014517,0.001256
-0.005349,-0.012131,0.003788
-0.004898,-0.011105,0.004279
-0.003005,-0.011683,0.003198
-0.00118,-0.012973,0.003348
-0.000365,-0.012486,0.003496
-0.000171,-0.010369,0.003584
-0.001372,-0.00842,0.005243
-0.003617,-0.007777,0.006204
-0.004245,-0.008786,0.00457
-0.003158,-0.009488,0.00216
-0.003134,-0.009572,-0.001164
-0.003504,-0.010492,-0.002931
-0.002183,-0.010582,-0.002343
-0.002119,-0.009167,-0.001472
-0.000975,-0.008447,-0.000782
0.001469,-0.008908,-0.000587
0.002221,-0.009968,-0.001275
0.001016,-0.011647,-0.003162
0.000614,-0.013672,-0.005563
0.000481,-0.014771,-0.007237
-0.00096,-0.015043,-0.006852
-0.002181,-0.016327,-0.005605
-0.00326,-0.017208,-0.003832
-0.003119,-0.015511,-0.002136
-0.00168,-0.014365,-0.002135
-0.00151,-0.017483,-0.002675
-0.002923,-0.022358,-0.003043
-0.004939,-0.023089,-0.003941
-0.005292,-0.020816,-0.004462
-0.003852,-0.019126,-0.003945
-0.002575,-0.018747,-0.003405
-0.001811,-0.019303,-0.004139
-0.001832,-0.01973,-0.004686
-0.003112,-0.018705,-0.004131
-0.003439,-0.017016,-0.002255
-0.001071,-0.016327,-0.00081
0.002177,-0.016806,-0.001277
0.00314,-0.017234,-0.002659
0.000866,-0.016673,-0.003003
-0.001844,-0.015106,-0.002525
-0.000951,-0.012859,-0.002857
-0.000462,-0.012159,-0.003104
-0.002365,-0.013819,-0.003812
-0.002923,-0.014501,-0.005072
-0.002499,-0.013404,-0.005841
-0.00196,-0.011322,-0.006756
-0.001851,-0.01075,-0.006864
-0.003402,-0.010413,-0.005562
-0.005033,-0.010183,-0.004637
-0.004258,-0.010486,-0.00454
-0.002222,-0.009759,-0.003435
-0.001696,-0.009266,-0.002004
-0.002162,-0.011005,-0.002965
-0.003069,-0.010927,-0.004879
-0.004343,-0.011277,-0.004993
-0.004045,-0.011463,-0.004799
-0.003442,-0.01043,-0.005282
-0.003693,-0.008569,-0.005881
-0.00342,-0.007549,-0.007423
-0.002781,-0.008524,-0.00954
-0.001588,-0.010491,-0.009935
0.001476,-0.011673,-0.007785
0.004505,-0.010971,-0.005646
0.005723,-0.008887,-0.00482
0.004595,-0.009809,-0.001844
0.002655,-0.013953,-0.000258
0.003354,-0.015941,-0.00167
0.004264,-0.015331,-0.001396
0.002606,-0.016233,0.00027
-0.000201,-0.017741,0.000759
-0.001707,-0.016605,0.000312
-0.002678,-0.016277,-0.000668
-0.003672,-0.019122,-0.001504
-0.003429,-0.022435,-0.00117
-0.001534,-0.021873,-0.000833
0.000165,-0.018753,-0.000177
-0.001352,-0.015885,0.001414
-0.004881,-0.014458,0.001978
-0.006433,-0.013521,0.002168
-0.005903,-0.012463,0.002822
-0.006961,-0.012311,0.002377
-0.009267,-0.013985,0.002731
-0.00932,-0.014343,0.001396
-0.007274,-0.013759,-0.000722
-0.004202,-0.012815,-0.00033
-0.003863,-0.011441,0.001002
-0.004849,-0.010662,0.001841
-0.005648,-0.010296,0.002266
-0.004404,-0.009965,0.002148
-0.002226,-0.010374,0.001887
-0.00103,-0.010836,0.002635
-0.000836,-0.011337,0.002135
-0.001462,-0.010177,0.001244
-0.00151,-0.007891,0.001669
-0.001326,-0.007496,0.001304
-0.003328,-0.008817,0.00054
-0.004128,-0.008102,-0.000455
-0.003607,-0.006898,-0.001716
-0.002842,-0.006241,-0.002917
-0.002957,-0.00563,-0.004871
-0.00353,-0.006929,-0.006307
-0.002727,-0.00951,-0.007087
-0.001964,-0.0103,-0.007099
-0.001965,-0.009739,-0.007675
-0.001611,-0.009843,-0.008565
-0.000167,-0.012575,-0.007992
0.002735,-0.014385,-0.007236
0.004296,-0.013927,-0.007509
0.002147,-0.014047,-0.00595
0.000322,-0.015117,-0.003683
-0.000852,-0.01595,-0.003108
-0.001954,-0.016554,-0.004031
-0.001164,-0.019088,-0.003611
0.000337,-0.021701,-0.001879
-0.001059,-0.021289,-0.000799
-0.002287,-0.019252,-0.000298
-0.001409,-0.019223,7.2e-05
-0.001004,-0.020379,0.000684
-0.001437,-0.020365,0.00056
-0.001045,-0.019066,-0.002289
-0.002511,-0.017965,-0.004695
-0.005812,-0.016395,-0.004562
-0.006971,-0.013433,-0.004762
-0.005135,-0.012303,-0.003982
-0.003742,-0.011777,-0.002885
-0.004603,-0.010973,-0.00219
-0.005873,-0.010098,-0.001877
-0.004663,-0.009895,-0.001692
-0.002433,-0.009713,-0.002432
-0.002014,-0.008668,-0.003085
-0.002801,-0.006993,-0.003428
-0.001797,-0.005447,-0.00367
0.000576,-0.005061,-0.003833
0.000519,-0.006156,-0.004191
-0.00252,-0.005509,-0.002492
-0.002509,-0.004429,-0.002221
0.000953,-0.005228,-0.005623
0.003556,-0.006683,-0.007258
0.002027,-0.009791,-0.005203
-0.001905,-0.013333,-0.001638
-0.004914,-0.014785,-0.000307
-0.005899,-0.013667,-0.00159
-0.005511,-0.012194,-0.002385
-0.003561,-0.011742,-0.002643
-0.000764,-0.012277,-0.001768
0.001538,-0.013411,-0.001088
0.001236,-0.013605,-0.000692
0.000495,-0.014255,-0.001679
0.00053,-0.01501,-0.000848
0.003158,-0.015963,0.001714
0.005084,-0.017352,0.005234
0.004696,-0.018067,0.006548
0.003292,-0.017661,0.006297
0.003285,-0.016739,0.006174
0.003527,-0.016812,0.00533
0.002581,-0.018863,0.002614
0.002752,-0.021546,0.001172
0.003257,-0.022067,0.001135
0.002688,-0.021043,8.2e-05
0.002503,-0.019168,-0.000465
0.004464,-0.017363,-0.001792
0.005175,-0.017302,-0.002185
0.004581,-0.017858,-0.002402
0.003301,-0.01673,-0.004316
0.002274,-0.015483,-0.004956
0.001948,-0.014541,-0.005089
0.001516,-0.014646,-0.004735
0.000434,-0.013724,-0.004368
-0.000158,-0.010942,-0.004942
0.000454,-0.008148,-0.00701
0.00085,-0.007929,-0.008129
0.000308,-0.009391,-0.00653
-0.000677,-0.01017,-0.00476
-0.00209,-0.011471,-0.004219
-0.00418,-0.012428,-0.003196
-0.006292,-0.013373,-0.003876
-0.006959,-0.014943,-0.004328
-0.005332,-0.014525,-0.005285
-0.004419,-0.012457,-0.006218
-0.003963,-0.010162,-0.005769
-0.003214,-0.008681,-0.004227
-0.002867,-0.009339,-0.003094
-0.002642,-0.012029,-0.003723
-0.002308,-0.013924,-0.003743
-0.002168,-0.013159,-0.002045
-0.001923,-0.012883,-0.000411
-0.001683,-0.014569,-0.000769
-0.001532,-0.015572,-0.002122
-0.001564,-0.014044,-0.002885
-0.003532,-0.012395,-0.003738
-0.004855,-0.014093,-0.005635
-0.004187,-0.016706,-0.005648
-0.001952,-0.018077,-0.003871
-0.002608,-0.018358,-0.001968
-0.00483,-0.018147,-0.00102
-0.004806,-0.017044,-0.000834
-0.002081,-0.015928,-0.001266
0.000565,-0.014663,-0.001506
0.000535,-0.013491,-0.002166
-0.001955,-0.012685,-0.002774
-0.003119,-0.012438,-0.001
-0.003029,-0.010745,-0.000159
-0.002561,-0.009954,0.000412
-0.003242,-0.010373,0.001616
-0.003074,-0.008867,0.001876
-0.000876,-0.007847,0.000157
0.000739,-0.009676,-0.002571
-0.000207,-0.012543,-0.003982
-0.00289,-0.013334,-0.002322
-0.005095,-0.01302,-0.000371
-0.004809,-0.013208,-0.000511
-0.002759,-0.012018,-0.00145
-0.001356,-0.009948,-0.001553
0.000899,-0.009859,-0.000311
0.002154,-0.011841,-0.000174
-0.000273,-0.01307,-0.001065
-0.002917,-0.012576,-0.003005
-0.001917,-0.012385,-0.004065
-0.000922,-0.012345,-0.00271
-0.002076,-0.012694,-0.000166
-0.002776,-0.013202,-0.00038
-0.002132,-0.01367,-0.001573
-0.001316,-0.01442,-0.002483
-0.002237,-0.015038,-0.002639
-0.003434,-0.014289,-0.002874
-0.004612,-0.014184,-0.003409
-0.00657,-0.0157,-0.002674
-0.007203,-0.01718,-0.003285
-0.004198,-0.017965,-0.00554
-0.001074,-0.017273,-0.005545
0.000193,-0.017396,-0.003534
-0.000711,-0.01933,-0.003702
-0.00044,-0.020551,-0.004173
3e-06,-0.019687,-0.003377
-0.002616,-0.018489,-0.002637
-0.006259,-0.017423,-0.00243
-0.00745,-0.016424,-0.002722
-0.007055,-0.017167,-0.003293
-0.004896,-0.016889,-0.003037
-0.002698,-0.014428,-0.000393
-0.002791,-0.012745,0.002842
-0.004952,-0.012582,0.004165
-0.005192,-0.012249,0.003453
-0.004942,-0.011892,0.001485
-0.005413,-0.011664,-0.000296
-0.004525,-0.010937,-0.001136
-0.002911,-0.010135,-0.002297
-0.001137,-0.010639,-0.002984
-0.000413,-0.011414,-0.002389
-0.001806,-0.011295,-2e-05
-0.00443,-0.011191,0.001382
-0.005964,-0.010063,0.000338
-0.006207,-0.008011,-0.001215
-0.005359,-0.007544,-0.001222
-0.005197,-0.008491,-0.001178
-0.007382,-0.008221,-0.002175
-0.00862,-0.00756,-0.004269
-0.004477,-0.007646,-0.005053
0.000502,-0.008266,-0.003793
0.002994,-0.008437,-0.002151
0.002931,-0.008379,-0.001866
0.000541,-0.008721,-0.00218
-0.003323,-0.011218,-0.001838
-0.004747,-0.013249,-0.001706
-0.003186,-0.011593,-0.002741
-0.002772,-0.009576,-0.003188
-0.003665,-0.010326,-0.002781
-0.00268,-0.012059,-0.002238
-0.000896,-0.014191,-0.002827
-0.001551,-0.016967,-0.004867
-0.002473,-0.017409,-0.005097
-0.002128,-0.015702,-0.005408
-0.001579,-0.016677,-0.00453
-0.001071,-0.018514,-0.003073
-0.002045,-0.019106,-0.002871
-0.001977,-0.018816,-0.004495
2.3e-05,-0.016813,-0.004005
0.001673,-0.0135,-0.00238
0.002897,-0.011901,-0.002611
0.003571,-0.011618,-0.002066
0.003274,-0.010444,-0.000713
0.002405,-0.00915,-0.000804
0.002859,-0.01057,-0.001351
0.002966,-0.013068,-0.000678
0.002334,-0.014788,-0.000968
0.002248,-0.013677,-0.001523
0.002475,-0.012704,-0.00062
0.002776,-0.012344,0.000157
0.003085,-0.011321,-0.000471
0.002166,-0.010404,-0.00092
0.00205,-0.009444,-0.002202
0.002957,-0.006669,-0.003797
0.00262,-0.004171,-0.003707
2.6e-05,-0.004104,-0.003653
-0.001988,-0.006869,-0.004147
-0.001545,-0.008516,-0.004834
-0.000152,-0.006821,-0.005892
-6e-05,-0.005172,-0.006056
-0.002021,-0.004709,-0.004692
-0.002862,-0.003775,-0.003983
-0.002622,-0.003741,-0.004427
-0.00151,-0.006499,-0.004661
0.000148,-0.009435,-0.005035
-0.000283,-0.011321,-0.004639
-0.002852,-0.012651,-0.003887
-0.00293,-0.013449,-0.004274
-0.000295,-0.014243,-0.00402
-9.7e-05,-0.015437,-0.004136
-0.001402,-0.014989,-0.004516
-0.001687,-0.016275,-0.003018
-0.001169,-0.020206,-0.00256
-0.001132,-0.020932,-0.002841
-0.000722,-0.019934,-0.001411
-0.000986,-0.021525,0.000768
-0.002879,-0.022268,0.002668
-0.002494,-0.020726,0.003235
0.00022,-0.020145,0.002846
0.002395,-0.021006,0.003356
0.002473,-0.02126,0.003686
0.000934,-0.021151,0.003823
-0.00058,-0.020058,0.003309
-0.001146,-0.017873,0.001856
-0.002615,-0.016975,0.00344
-0.003672,-0.016609,0.007076
-0.002846,-0.016372,0.007327
-0.003016,-0.017337,0.003655
-0.00416,-0.017946,0.000517
-0.005935,-0.016457,-0.001832
-0.006366,-0.014758,-0.003273
-0.004595,-0.013205,-0.004493
-0.002717,-0.013234,-0.005586
-0.001199,-0.014084,-0.004812
-0.00073,-0.013792,-0.004323
-0.002669,-0.010869,-0.005006
-0.004039,-0.006215,-0.005214
-0.002965,-0.00399,-0.004419
-0.002842,-0.005862,-0.004204
-0.002729,-0.007608,-0.00373
-0.000927,-0.008217,-0.001823
-0.001068,-0.008232,0.000378
-0.003554,-0.008118,0.000696
-0.004629,-0.008393,0.001179
-0.00389,-0.010559,0.000873
-0.00258,-0.013388,0.000335
-0.000481,-0.013635,0.000163
0.000439,-0.011762,0.000173
0.000511,-0.011935,0.000287
0.001585,-0.014444,-0.00034
0.003492,-0.015677,-0.001997
0.003204,-0.017556,-0.003307
0.001818,-0.017735,-0.003462
0.000723,-0.01614,-0.001661
-0.000314,-0.015029,-0.001757
-0.000927,-0.015704,-0.002937
-0.000499,-0.016279,-0.002913
-0.000174,-0.015405,-0.002077
0.000804,-0.014439,-0.00168
0.002676,-0.015013,-0.001306
0.002417,-0.016976,-0.001113
-0.000515,-0.018738,-0.002115
-0.001117,-0.018482,-0.002261
0.002266,-0.016587,-0.001324
0.005653,-0.015965,-0.00164
0.003532,-0.015784,-0.002849
0.00171,-0.013141,-0.002734
0.000155,-0.011385,-0.000979
0.001443,-0.009833,0.000166
0.002729,-0.008493,-2.8e-05
0.00133,-0.009531,-0.000628
2.4e-05,-0.01195,-0.001135
0.000174,-0.012739,-0.001512
0.000508,-0.011461,-0.001906
-0.000616,-0.010685,-0.003521
-0.002163,-0.008842,-0.004693
-0.00443,-0.006856,-0.00514
-0.00576,-0.007291,-0.005501
-0.005555,-0.008835,-0.004895
-0.003802,-0.009594,-0.005038
-0.002055,-0.010197,-0.005095
-0.00141,-0.009537,-0.003887
-0.004136,-0.008019,-0.002435
-0.006602,-0.009451,-0.002847
-0.00407,-0.012463,-0.004537
-0.000533,-0.014329,-0.005598
-0.000295,-0.014936,-0.00584
-0.001305,-0.01473,-0.005538
-0.002501,-0.015777,-0.006011
-0.003896,-0.017327,-0.00517
-0.006048,-0.018191,-0.002586
-0.007313,-0.018455,-0.000629
-0.007216,-0.01846,-0.000837
-0.00704,-0.018993,-0.001919
-0.006682,-0.01925,-0.002852
-0.005471,-0.018785,-0.002707
-0.005297,-0.017779,-0.002231
-0.00542,-0.017018,-0.002907
-0.004753,-0.017488,-0.004453
-0.005068,-0.017617,-0.004944
-0.006762,-0.017285,-0.004402
-0.006165,-0.018072,-0.005311
-0.003797,-0.018833,-0.006867
-0.00401,-0.020196,-0.006946
-0.007019,-0.020627,-0.00584
-0.006752,-0.020001,-0.003934
-0.0041,-0.018919,-0.002834
-0.001543,-0.017442,-0.002371
-0.000358,-0.015267,-0.002576
-0.001292,-0.011567,-0.002856
-0.004012,-0.009788,-0.002851
-0.004775,-0.010512,-0.003128
-0.00395,-0.010104,-0.003844
-0.002422,-0.008398,-0.005035
0.000501,-0.007613,-0.005705
0.002023,-0.007556,-0.003709
0.000891,-0.007811,-0.001157
-0.000649,-0.009316,-0.000531
-0.00083,-0.011427,-0.00143
-0.000849,-0.013091,-0.003021
-0.000186,-0.011378,-0.004192
-0.000831,-0.008682,-0.003755
-0.002748,-0.008576,-0.000659
-0.00219,-0.009232,0.000877
0.000581,-0.008613,-0.001439
0.001467,-0.007109,-0.00568
-0.000284,-0.007238,-0.007814
-0.002312,-0.009773,-0.006769
-0.003291,-0.012751,-0.004536
-0.002791,-0.013351,-0.002373
-0.002643,-0.013257,-0.000346
-0.00344,-0.015195,0.000448
-0.003677,-0.017539,0.000503
-0.002841,-0.020662,0.001049
-0.002191,-0.021174,0.002105
-0.00239,-0.019725,0.00133
-0.002941,-0.018809,0.000457
-0.004481,-0.019966,0.000172
-0.00496,-0.021184,0.000102
-0.004312,-0.020335,0.000666
-0.003221,-0.01862,0.001487
-0.002545,-0.017683,0.002332
-0.001989,-0.01704,0.001575
-0.000293,-0.01665,-0.000646
0.001888,-0.016622,-0.00061
0.002331,-0.016767,0.000896
0.001687,-0.017291,0.000838
0.001787,-0.015775,-0.000819
0.000889,-0.013354,-0.000407
-0.000994,-0.011731,0.001029
-0.001107,-0.010982,5.6e-05
-0.000177,-0.010183,-0.001375
-0.001496,-0.008641,-0.001943
-0.004411,-0.007539,-0.001844
-0.004739,-0.006428,-0.002444
-0.003089,-0.005759,-0.003297
-0.003252,-0.004596,-0.00328
-0.003263,-0.00201,-0.002913
-0.002732,-0.00151,-0.003153
-0.004144,-0.004086,-0.003348
-0.00587,-0.006039,-0.002301
-0.0057,-0.00591,-0.000801
-0.002451,-0.006242,-0.000722
-0.000894,-0.006334,-0.001847
-0.00206,-0.006658,-0.002075
-0.003263,-0.007891,-0.001304
-0.002788,-0.008958,-0.001493
-0.000702,-0.010679,-0.002104
0.002194,-0.012217,-0.001448
0.002832,-0.012704,-0.001826
-0.000562,-0.012889,-0.002318
-0.004656,-0.014773,-0.002344
-0.00644,-0.016199,-0.001582
-0.006051,-0.017614,-0.000165
-0.004864,-0.018278,-0.001632
-0.004847,-0.017805,-0.003136
-0.004139,-0.016962,-0.003006
-0.001448,-0.01734,-0.002776
0.000898,-0.017869,-0.000212
0.002434,-0.016447,0.000885
0.003455,-0.014923,-0.000197
0.004579,-0.013469,-0.001426
0.004653,-0.011815,-0.002857
0.003242,-0.010496,-0.003599
0.003539,-0.009699,-0.003563
0.004284,-0.011343,-0.002478
0.003242,-0.013044,-0.00187
0.000815,-0.012868,-0.002869
0.00017,-0.011408,-0.003606
0.000289,-0.009463,-0.004095
0.000753,-0.007089,-0.003399
-5.3e-05,-0.005754,-0.002232
-0.001854,-0.005475,-0.001483
-0.002291,-0.004377,-0.001006
-0.000192,-0.004797,-0.001033
0.001639,-0.006479,-0.002219
0.001897,-0.006705,-0.003451
0.001716,-0.008097,-0.003034
0.000682,-0.010568,-0.002433
-0.001048,-0.010284,-0.002187
-0.002849,-0.008405,-0.002356
-0.002759,-0.006925,-0.002634
-0.001486,-0.008052,-0.004222
-0.001566,-0.011454,-0.004325
-0.002991,-0.013386,-0.004099
-0.00515,-0.012881,-0.004107
-0.005987,-0.012559,-0.005722
-0.005621,-0.013782,-0.007909
-0.004943,-0.015206,-0.007572
-0.002526,-0.016493,-0.005429
0.000599,-0.018696,-0.004824
0.001344,-0.019161,-0.005821
0.000302,-0.017802,-0.004857
-0.000479,-0.01858,-0.003243
-0.002033,-0.01992,-0.001817
-0.002559,-0.01822,-0.000873
-0.001387,-0.017937,-0.001239
-0.000841,-0.019815,-0.001247
-0.00106,-0.022101,-0.000397
-0.00192,-0.024341,-0.000844
-0.002838,-0.024305,-0.002011
-0.002262,-0.020836,-0.001436
-0.000245,-0.018128,-0.001053
0.001209,-0.018443,-0.001643
0.000862,-0.019716,-0.00263
-0.001468,-0.020255,-0.004134
-0.003553,-0.019696,-0.005763
-0.002358,-0.017792,-0.005707
-0.000144,-0.016906,-0.003484
0.000217,-0.016182,-0.002847
0.000577,-0.015316,-0.003231
9.6e-05,-0.013921,-0.004621
-0.002417,-0.013156,-0.005001
-0.004364,-0.012961,-0.005119
-0.006587,-0.012937,-0.004612
-0.008586,-0.013258,-0.002799
-0.007947,-0.011702,-0.000517
-0.006519,-0.010162,0.000922
-0.005663,-0.01086,0.001575
-0.005243,-0.013604,0.001391
-0.004397,-0.016194,0.000688
-0.003155,-0.017037,0.002222
-0.002145,-0.014765,0.003109
-0.001816,-0.013316,0.002402
-0.001201,-0.014121,0.001667
0.000833,-0.016269,0.000848
0.001911,-0.017903,-0.000383
0.000947,-0.018288,-0.001892
-0.000314,-0.018303,-0.002043
-0.000525,-0.018499,-0.001187
1.9e-05,-0.018168,-0.001602
0.000557,-0.017691,-0.002101
-0.001035,-0.02048,-0.002473
-0.004756,-0.023769,-0.003131
-0.006879,-0.022841,-0.002862
-0.005423,-0.018579,-0.000869
-0.003809,-0.015612,0.000881
-0.003379,-0.014525,0.001033
-0.002604,-0.01452,0.000449
-0.001584,-0.015162,0.000279
5.4e-05,-0.014983,1.4e-05
0.001519,-0.013644,-0.000942
0.00066,-0.010979,-0.00208
-0.000506,-0.008279,-0.00123
-0.001287,-0.007186,0.00044
-0.002333,-0.008543,0.000573
-0.001326,-0.010392,-9.7e-05
0.000115,-0.010892,-0.000807
-0.000881,-0.009511,-0.000165
-0.00211,-0.007605,0.000139
-0.001696,-0.006195,-8.2e-05
-0.002819,-0.002994,0.000472
-0.003581,-6.5e-05,0.000331
-0.002881,0.00098,-0.000867
-0.001861,4.3e-05,-0.001345
-0.00151,-0.002841,-0.003359
-0.002353,-0.005571,-0.00572
-0.002149,-0.006962,-0.005967
-0.001714,-0.008264,-0.004843
-0.001538,-0.010266,-0.004236
-0.000889,-0.010893,-0.004361
-0.001843,-0.007894,-0.004522
-0.002878,-0.006126,-0.004647
-0.003287,-0.009861,-0.003904
-0.003934,-0.014378,-0.004759
-0.004197,-0.017259,-0.007248
-0.004196,-0.016643,-0.008259
-0.004345,-0.014486,-0.0066
-0.004965,-0.014979,-0.004691
-0.00448,-0.016732,-0.004188
-0.002299,-0.017965,-0.005653
-0.000766,-0.019651,-0.006373
-0.001048,-0.020833,-0.005703
-0.002366,-0.021419,-0.004046
-0.00429,-0.022621,-0.002575
-0.005898,-0.023008,-0.001136
-0.006322,-0.023466,-0.000322
-0.00389,-0.022944,-0.001903
-0.000488,-0.021561,-0.004043
0.000336,-0.019694,-0.005419
-0.001751,-0.017856,-0.005671
-0.002374,-0.016063,-0.003495
-0.001657,-0.014646,-0.002111
-0.001514,-0.014157,-0.003441
-0.001037,-0.014221,-0.004908
-0.000322,-0.014133,-0.004679
-0.000449,-0.013676,-0.003396
-0.002056,-0.012352,-0.001634
-0.00352,-0.012922,-0.000843
-0.003121,-0.013255,-0.001256
-0.00213,-0.010665,-0.002376
-0.00211,-0.007853,-0.00233
-0.003164,-0.006054,-0.001583
-0.003282,-0.004248,-0.000597
-0.002626,-0.002597,0.001632
-0.001748,-0.001671,0.002337
0.000613,-0.002602,0.000257
0.002513,-0.003914,-0.000837
0.001371,-0.004445,-0.000346
-0.001756,-0.004667,-0.000437
-0.004728,-0.005147,-0.001696
-0.00617,-0.005526,-0.003778
-0.005099,-0.006611,-0.005899
-0.001989,-0.008519,-0.006433
0.001471,-0.009567,-0.005544
0.003606,-0.009827,-0.005014
0.003531,-0.011241,-0.002642
0.002577,-0.013269,-0.000902
0.002589,-0.014669,-0.002219
0.002738,-0.01585,-0.004077
0.000838,-0.015923,-0.004327
-0.000292,-0.015491,-0.004425
0.001621,-0.015573,-0.005059
0.003748,-0.015182,-0.004344
0.002642,-0.015415,-0.00296
-0.001171,-0.015277,-0.000841
-0.002045,-0.01464,0.00123
0.000128,-0.015328,0.002043
0.003817,-0.016689,0.002103
0.007557,-0.016311,0.001604
0.007469,-0.014215,0.000694
0.0055,-0.013855,9.8e-05
0.004779,-0.014776,0.000516
0.002845,-0.014543,0.001705
-0.001998,-0.014712,0.001955
-0.005603,-0.015931,0.00185
-0.004708,-0.017371,0.002115
-0.003026,-0.017776,0.002483
-0.004137,-0.018433,0.001549
-0.005914,-0.016555,0.000111
-0.006597,-0.014412,-0.001546
-0.003914,-0.012687,-0.001816
-0.002056,-0.011402,-0.001678
-0.002747,-0.010862,-0.001846
-0.002643,-0.010598,-0.002385
-0.002437,-0.010334,-0.002123
-0.00214,-0.010417,-0.001139
4.2e-05,-0.010793,-0.00105
0.002478,-0.010667,-0.002234
0.002885,-0.010842,-0.003598
1.1e-05,-0.011189,-0.003576
-0.002066,-0.010634,-0.003988
0.000167,-0.009729,-0.004199
0.00205,-0.011394,-0.002708
0.000146,-0.013327,-0.000843
-0.002132,-0.013472,-0.000984
-0.002015,-0.011973,-0.001414
-0.001097,-0.011906,-0.001173
-0.002243,-0.015668,-0.001177
-0.002852,-0.019081,-0.00152
-0.002012,-0.019306,-0.002443
-0.002134,-0.018749,-0.001738
-0.003456,-0.019988,0.000807
-0.004144,-0.021985,0.002196
-0.002403,-0.021131,0.002199
-0.001864,-0.019532,0.002827
-0.002473,-0.017979,0.002886
-0.001337,-0.018516,0.003781
8.1e-05,-0.018658,0.004472
-0.000601,-0.017118,0.003935
-0.001726,-0.016504,0.002635
-0.003272,-0.016011,0.000965
-0.005082,-0.014481,0.000652
-0.006067,-0.012798,0.001545
-0.004625,-0.012523,0.002059
-0.002167,-0.012003,0.00171
-0.002804,-0.010575,0.000731
-0.005478,-0.008246,-0.000354
-0.005562,-0.006643,-0.002206
-0.002198,-0.007218,-0.004195
-0.000185,-0.007601,-0.004148
-0.000485,-0.008298,-0.003724
-0.00033,-0.008988,-0.005234
-0.000985,-0.009802,-0.006696
-0.003375,-0.008889,-0.006614
-0.004874,-0.007646,-0.006026
-0.004168,-0.008074,-0.006901
-0.003135,-0.008758,-0.007656
-0.002847,-0.008562,-0.007495
-0.002489,-0.008391,-0.007264
-0.002615,-0.009347,-0.006942
-0.002991,-0.009718,-0.006587
-0.001565,-0.010378,-0.005577
0.000494,-0.011766,-0.005774
0.000365,-0.012272,-0.007733
-0.001092,-0.012389,-0.009294
-0.002346,-0.012644,-0.009306
-0.002192,-0.014707,-0.008118
-0.000222,-0.017026,-0.007148
0.000907,-0.018428,-0.005844
0.001274,-0.019582,-0.003602
0.001232,-0.020332,-0.003275
-0.000231,-0.020999,-0.004466
-0.001888,-0.019979,-0.00357
-0.002319,-0.018781,-0.000763
-0.002356,-0.01956,-0.000179
-0.002845,-0.019809,-0.001173
-0.00184,-0.020417,-0.000769
0.000481,-0.021869,0.000317
-1e-06,-0.021599,0.001172
-0.001417,-0.0191,0.000732
-0.002018,-0.017356,-0.000151
-0.001713,-0.016621,0.000837
-0.001087,-0.016873,0.001938
-0.000538,-0.017125,0.002282
-0.000228,-0.016336,0.002126
-0.000659,-0.014462,0.000405
-0.001798,-0.012835,-0.000717
-0.001863,-0.010214,-0.001134
-0.002814,-0.008282,-0.002467
-0.002979,-0.008973,-0.004178
-0.001831,-0.010826,-0.003812
-0.001769,-0.009879,-0.003383
-0.002443,-0.007958,-0.00379
-0.003409,-0.00678,-0.004637
-0.003454,-0.006004,-0.004738
-0.002047,-0.006378,-0.004284
-0.000991,-0.00654,-0.004127
-0.001048,-0.006447,-0.003664
-0.000471,-0.006725,-0.004068
0.001266,-0.007929,-0.005921
0.000112,-0.009644,-0.004962
-0.00265,-0.010067,-0.002984
-0.003191,-0.007221,-0.00403
-0.000803,-0.006614,-0.00412
0.001719,-0.010051,-0.002947
0.000456,-0.013223,-0.00151
-0.001907,-0.014857,-0.001809
-0.002727,-0.017521,-0.002515
-0.003412,-0.020228,-0.002669
-0.006089,-0.020812,-0.002504
-0.007062,-0.020641,-0.001887
-0.005038,-0.020315,-0.002233
-0.004445,-0.019889,-0.002893
-0.006166,-0.019947,-0.003427
-0.007592,-0.020862,-0.002489
-0.006271,-0.021954,-0.001859
-0.004522,-0.020908,-0.001481
-0.004288,-0.018714,-0.0005
-0.004879,-0.016432,-0.000662
-0.004243,-0.015525,-0.001467
-0.003915,-0.01505,-0.00174
-0.001869,-0.013788,-0.000553
-4e-06,-0.012669,0.001397
-0.000579,-0.013407,0.001927
-0.00033,-0.014458,0.001419
0.002637,-0.01536,4e-06
0.00591,-0.014051,-0.001292
0.007542,-0.012167,-0.000508
0.007106,-0.012537,0.002139
0.00487,-0.010752,0.003866
0.001702,-0.006907,0.001639
0.002033,-0.005062,-0.001173
0.003419,-0.005573,-0.00226
0.003939,-0.007028,-0.002414
0.002315,-0.00751,-0.002744
-0.00047,-0.008462,-0.004726
-0.00193,-0.009834,-0.006828
-0.002191,-0.010634,-0.007647
-0.001839,-0.010466,-0.006946
-0.002058,-0.008751,-0.005549
-0.003264,-0.007814,-0.005071
-0.004576,-0.007127,-0.006665
-0.00582,-0.006886,-0.007053
-0.005998,-0.007788,-0.00478
-0.004137,-0.009636,-0.002379
-0.000745,-0.010304,-0.001293
-9.1e-05,-0.010874,-0.002543
-0.002522,-0.012364,-0.004969
-0.003305,-0.014272,-0.005609
-0.001644,-0.01576,-0.004392
-0.001311,-0.016,-0.001767
-0.003542,-0.016097,0.00062
-0.0057,-0.017926,0.000698
-0.005832,-0.020458,-0.002091
-0.004982,-0.019841,-0.005714
-0.004568,-0.017314,-0.004969
-0.004688,-0.017282,-0.002192
-0.006266,-0.016577,-0.000526
-0.006725,-0.015939,-0.000767
-0.005477,-0.015915,-3.8e-05
-0.003328,-0.015771,0.001351
-0.001132,-0.015722,0.002307
0.000138,-0.015307,0.001922
0.001014,-0.014945,0.000657
0.001916,-0.014734,0.00076
0.003065,-0.013495,0.000955
0.002669,-0.012421,9.3e-05
0.000158,-0.012805,-0.001528
-0.000478,-0.013216,-0.002447
0.000456,-0.013588,-0.003158
0.000935,-0.012501,-0.00322
-0.001212,-0.0101,-0.004
-0.000952,-0.009076,-0.00527
0.002109,-0.010686,-0.00575
0.003865,-0.013027,-0.00666
0.003312,-0.012315,-0.006804
0.001879,-0.010662,-0.005653
0.00117,-0.01032,-0.004752
0.000548,-0.011074,-0.004537
-0.000309,-0.012531,-0.004292
2.1e-05,-0.012009,-0.005241
0.000307,-0.009901,-0.00511
-0.000125,-0.008784,-0.004416
-0.001176,-0.00957,-0.003192
-0.00074,-0.0098,-0.004239
0.000524,-0.00852,-0.004723
0.000267,-0.008291,-0.003636
-0.001423,-0.00936,-0.002758
-0.001084,-0.012349,-0.002577
0.001985,-0.014721,-0.00202
0.00343,-0.015959,0.000387
0.00183,-0.016824,0.002835
0.000785,-0.016944,0.003193
5.1e-05,-0.017456,0.001408
0.000105,-0.018434,-0.001341
0.000763,-0.018789,-0.00215
0.000519,-0.018307,-0.000889
-0.00031,-0.018303,0.000993
0.000351,-0.018214,0.00068
0.000444,-0.017386,-0.001139
-0.000267,-0.015756,-0.003613
-0.001617,-0.01411,-0.00454
-0.001034,-0.013959,-0.002766
1e-05,-0.013632,-0.000297
-0.002864,-0.012452,0.000957
-0.007666,-0.012409,0.001379
-0.008766,-0.012582,0.001635
-0.006734,-0.013376,0.000892
-0.005927,-0.013591,-0.001745
-0.008968,-0.011124,-0.003278
-0.011251,-0.00889,-0.000841
-0.009396,-0.008951,0.001094
-0.006902,-0.009485,-0.000268
-0.004924,-0.00859,-0.002854
-0.004731,-0.006531,-0.002456
-0.004953,-0.005527,-0.001266
-0.004164,-0.005198,-0.001208
-0.003777,-0.005729,-0.001941
-0.003665,-0.006601,-0.00218
-0.002742,-0.006888,-0.002073
-0.001856,-0.00799,-0.001145
-0.002902,-0.0099,-0.00043
-0.005722,-0.010978,-0.000929
-0.007172,-0.012534,-0.000849
-0.008414,-0.014977,-0.000161
-0.008823,-0.016361,-0.000243
-0.006176,-0.017007,-0.002297
-0.002635,-0.017078,-0.002687
-0.001399,-0.016277,-0.001954
-0.00104,-0.016632,-0.000972
-0.000517,-0.018744,0.000562
-0.00054,-0.020259,0.001059
-0.00147,-0.020261,-0.000629
-0.000789,-0.020265,-0.001636
0.001879,-0.020954,-0.000761
0.004229,-0.021156,0.000773
0.002678,-0.021142,0.00179
0.000334,-0.021658,0.000503
0.001247,-0.021623,-0.001935
0.001982,-0.0211,-0.003145
0.000473,-0.019396,-0.002849
-0.001138,-0.017817,-0.002462
-0.002091,-0.018008,-0.001013
-0.002372,-0.018599,0.000126
-0.001833,-0.016824,0.00016
-0.001315,-0.015217,-0.001162
-0.001841,-0.015158,-0.001621
-0.001567,-0.013297,-0.000522
-0.000792,-0.009311,0.000654
-0.00023,-0.007965,0.000243
-0.001289,-0.00821,0.000489
-0.002535,-0.007186,0.001137
-0.002884,-0.006227,-0.000124
-0.003195,-0.006163,-0.002762
-0.003184,-0.004685,-0.003861
-0.002414,-0.002913,-0.003972
-0.000565,-0.003098,-0.004741
-0.001297,-0.005323,-0.00586
-0.003629,-0.006917,-0.00519
-0.00422,-0.007323,-0.003836
-0.00273,-0.008679,-0.003761
-0.000883,-0.010535,-0.00321
-0.000498,-0.009771,-0.004871
-0.000973,-0.009099,-0.006914
-0.001672,-0.011407,-0.005878
-0.002292,-0.014052,-0.006113
-0.001361,-0.015929,-0.006802
-0.000358,-0.017937,-0.004893
0.000368,-0.017871,-0.002992
0.001146,-0.016389,-0.002704
0.001086,-0.016875,-0.003837
-0.000273,-0.018318,-0.005215
-0.000442,-0.018967,-0.00435
0.000611,-0.018187,-0.001852
-0.000352,-0.016923,-0.000386
-0.002071,-0.016072,-0.000441
-0.00101,-0.014459,0.000536
0.001256,-0.014585,0.002768
0.001584,-0.015785,0.004504
-0.001168,-0.015759,0.003532
-0.002457,-0.014026,0.00041
-0.002269,-0.013355,-0.001769
-0.002071,-0.015606,-0.002406
-2e-05,-0.018029,-0.002183
0.003047,-0.017669,-0.001618
0.004903,-0.015036,-0.000265
0.00352,-0.012186,-0.000715
0.001102,-0.010301,-0.003699
-1.6e-05,-0.010425,-0.004572
-0.00074,-0.010574,-0.003675
-0.000529,-0.009801,-0.003525
-0.00067,-0.009565,-0.004194
-0.001967,-0.008251,-0.005561
-0.003423,-0.006403,-0.005926
-0.002412,-0.007066,-0.006505
-0.001037,-0.009138,-0.0078
-0.001633,-0.009553,-0.008453
-0.002442,-0.00908,-0.007967
-0.003968,-0.008726,-0.007044
-0.004999,-0.008359,-0.006288
-0.005648,-0.009119,-0.005205
-0.006868,-0.010556,-0.004124
-0.00749,-0.011187,-0.003042
-0.005771,-0.009905,-0.001961
-0.003922,-0.008446,-0.002488
-0.002165,-0.010191,-0.003049
-0.001469,-0.013834,-0.003818
-0.000964,-0.015774,-0.004931
-0.000127,-0.015912,-0.005635
-0.00084,-0.016444,-0.007159
-0.001099,-0.016585,-0.007381
-0.000508,-0.016599,-0.006239
-0.001521,-0.017328,-0.004146
-0.003513,-0.016884,-0.002915
-0.004076,-0.016099,-0.004148
-0.004161,-0.016723,-0.005092
-0.00576,-0.018097,-0.004348
-0.006515,-0.018604,-0.002956
-0.006875,-0.017297,-0.002516
-0.00458,-0.017008,-0.003176
-0.002769,-0.018068,-0.002949
-0.001729,-0.019778,-0.002889
0.001697,-0.019723,-0.004193
0.004644,-0.017425,-0.003271
0.00317,-0.015655,-0.000637
0.000131,-0.014921,0.000756
-0.000365,-0.013817,0.000841
0.000938,-0.011916,0.000949
0.00214,-0.009765,0.001381
0.00166,-0.007453,0.002872
0.000923,-0.005418,0.004978
-0.000457,-0.004551,0.005687
0.000466,-0.006928,0.003776
0.003995,-0.008037,0.001177
0.004718,-0.006367,-0.000102
0.001952,-0.005535,0.000293
0.000287,-0.00571,0.000898
-0.00052,-0.006923,0.001543
-0.002147,-0.009033,0.00185
-0.002118,-0.010828,0.001842
-0.00045,-0.012217,0.001429
-0.000544,-0.012938,0.001405
-0.001485,-0.014656,0.002296
-0.001258,-0.015677,0.00223
-0.001167,-0.016089,0.000636
-0.002353,-0.015612,-0.001176
-0.003368,-0.014296,-0.002945
-0.00103,-0.014945,-0.004026
0.001926,-0.01762,-0.002613
0.001483,-0.019969,-0.000832
-0.000653,-0.020103,-0.000432
-0.001073,-0.020304,-0.001473
-0.001189,-0.020748,-0.001325
-0.003241,-0.020649,-0.000444
-0.005081,-0.018977,-0.000278
-0.004928,-0.018288,-0.001204
-0.005099,-0.018303,-0.001103
-0.005809,-0.017843,-0.000856
-0.006188,-0.018924,-0.001002
-0.004685,-0.01956,-0.000783
-0.003736,-0.017487,0.000535
-0.00287,-0.016212,-0.000834
-0.002577,-0.015737,-0.002702
-0.00075,-0.015044,-0.003852
0.002954,-0.014673,-0.003794
0.005261,-0.0141,-0.0027
0.004069,-0.01338,-0.001352
0.002415,-0.012392,-0.00077
0.002434,-0.011973,-0.002023
0.001852,-0.011391,-0.003424
0.001265,-0.009826,-0.004554
0.000386,-0.006153,-0.003458
-0.001825,-0.004199,-0.001517
-0.004294,-0.004267,-0.002036
-0.005356,-0.005352,-0.00458
-0.005127,-0.006394,-0.004571
-0.004035,-0.007001,-0.00333
-0.003892,-0.006696,-0.003471
-0.004256,-0.006899,-0.005126
-0.004638,-0.008765,-0.006221
-0.00525,-0.010004,-0.007141
-0.005108,-0.010069,-0.00733
-0.002376,-0.011682,-0.006474
-0.00043,-0.014026,-0.003894
-0.002236,-0.016964,-0.002014
-0.004791,-0.019065,-0.003135
-0.007222,-0.017929,-0.004196
-0.008055,-0.016988,-0.004066
-0.009024,-0.017289,-0.002777
-0.007252,-0.017201,-0.001505
-0.003679,-0.016731,-0.001009
-0.002437,-0.016349,-0.000665
-0.003303,-0.01653,0.000796
-0.004772,-0.016431,0.002963
-0.004027,-0.015545,0.003754
-0.001844,-0.015575,0.002282
1.5e-05,-0.017991,0.001544
0.001031,-0.020059,0.001799
0.000575,-0.018454,0.00107
0.000148,-0.016282,0.00084
0.001203,-0.014956,0.000814
0.001054,-0.0152,0.000381
-0.000928,-0.015559,-0.000595
-0.002881,-0.014026,-0.001212
-0.003365,-0.011887,0.000112
-0.002576,-0.011093,0.001102
-0.002336,-0.010395,-0.000555
-0.003329,-0.0097,-0.003499
-0.00518,-0.008681,-0.005204
-0.004657,-0.006732,-0.005785
-0.002266,-0.005804,-0.00506
-0.00023,-0.00496,-0.003674
-0.000942,-0.005513,-0.001272
-0.000471,-0.00684,-0.001729
0.001105,-0.00579,-0.003437
0.000223,-0.005216,-0.003804
0.000113,-0.006695,-0.00256
0.000538,-0.00911,-0.001615
-0.000589,-0.010312,-0.002132
-0.000729,-0.01016,-0.003656
0.000748,-0.010094,-0.004652
-0.000321,-0.010233,-0.006122
-0.002802,-0.011891,-0.007834
-0.004068,-0.015448,-0.007306
-0.002466,-0.017573,-0.005204
0.001362,-0.016084,-0.003927
0.001541,-0.014273,-0.005541
0.000212,-0.015438,-0.007692
-0.001002,-0.017725,-0.009471
-0.000981,-0.017958,-0.008449
-0.000538,-0.016643,-0.006739
-0.002649,-0.01739,-0.006621
-0.00495,-0.019751,-0.006979
-0.005046,-0.019093,-0.006184
-0.00401,-0.016972,-0.003562
-0.004387,-0.0165,-0.00173
-0.005047,-0.017489,-0.002507
-0.004548,-0.018743,-0.002034
-0.003891,-0.019567,0.000234
-0.002921,-0.019152,0.000833
-0.000942,-0.017062,0.001514
1.2e-05,-0.01516,0.001873
-0.000977,-0.014025,0.001851
-0.001427,-0.012575,0.000665
-0.002652,-0.012088,-0.001403
-0.00244,-0.013494,-0.00319
-0.001239,-0.013703,-0.004284
-0.002616,-0.012697,-0.003521
-0.004673,-0.011522,-0.002544
-0.005116,-0.00966,-0.002696
-0.004875,-0.006727,-0.001301
-0.003901,-0.00532,0.000312
-0.001647,-0.006914,-0.001053
-0.001035,-0.009221,-0.002342
-0.000515,-0.01204,-0.001781
-0.001031,-0.013343,-0.000561
-0.000649,-0.01137,0.001033
0.000675,-0.009247,0.001186
0.001201,-0.008653,0.000917
0.000629,-0.007403,0.000515
0.000286,-0.00673,-0.000115
0.001171,-0.007243,-0.001948
0.000925,-0.007391,-0.004203
-2e-05,-0.007999,-0.004486
-0.000958,-0.008776,-0.003964
-0.002096,-0.01008,-0.004148
-0.00119,-0.01218,-0.004851
-0.000281,-0.014294,-0.003862
-0.002836,-0.015188,-0.004199
-0.005886,-0.014339,-0.00553
-0.006303,-0.014066,-0.004898
-0.005233,-0.015042,-0.002182
-0.003966,-0.017647,-0.000102
-0.003477,-0.020759,0.000349
-0.003442,-0.022365,0.000347
-0.003824,-0.022339,0.001141
-0.00407,-0.020984,0.00127
-0.004353,-0.02034,0.000139
-0.004338,-0.020886,-0.00046
-0.002532,-0.022214,0.000741
0.001527,-0.020328,0.002342
0.00311,-0.017419,0.002488
0.004946,-0.014831,0.001786
0.007044,-0.014569,6.8e-05
0.006176,-0.017033,-0.001417
0.005055,-0.019096,-0.000737
0.004446,-0.019204,-0.000303
