ch_0,ch_1,ch_2
-0.009415223757969216,0.01015327052300563,-0.027381594918551855
-0.01011454969557235,-0.006615537586185383,-0.03216664481442422
-0.01044875716615934,-0.01956557207449805,-0.03635455868788995
-0.010711563845688943,-0.028551608920679428,-0.03316687070764601
-0.012555984540085774,-0.03792175994021818,-0.019872089978889562
-0.016112946468638256,-0.05515133307198994,-0.006126392236183165
-0.020813273295061663,-0.07628119055880234,-0.002170299239878659
-0.023580803826916963,-0.092093730927445,-0.003493907570373267
-0.023157661416917108,-0.09787553426576778,-0.004422216989041772
-0.021744668629253283,-0.07992573227966204,-0.003922637006326113
-0.021660267520928755,-0.04088709465577267,-0.0025110941805905895
-0.024319464500877075,-0.0054974334489088506,-0.007582572834508028
-0.029080592867103405,0.008114801858027931,-0.014421097148442641
-0.03254934199503623,0.007008639840933029,-0.01359456200589193
-0.03339952672831714,0.005078183676232584,-0.010222716809948906
-0.03156564343953505,0.005581295226875227,-0.009716170097817667
-0.028846401619375683,0.007243007075885544,-0.009339325515611563
-0.02699899960134644,0.007873298272897955,-0.005806548870168626
-0.02722162207646761,0.003050500481549534,-0.0027228240924159763
-0.027465135644888505,-0.004957214059686521,-0.0040850623008736875
-0.026870744477491826,-0.009669878636486828,-0.008621706001576968
-0.02695254806894809,-0.009447205229662359,-0.014412096788873896
-0.02792396662698593,-0.008343132321897428,-0.018859698684536852
-0.028508264222182333,-0.01015014095173683,-0.020280715034459718
-0.027811151085188612,-0.010797311006172094,-0.01924266507558059
-0.026162239009863697,-0.006960724022064824,-0.017746315279509872
-0.026020812583738007,-0.0014543526276611374,-0.017713455235934816
-0.026359186449553818,0.0016344231426046463,-0.021114183255122043
-0.027528058126335964,0.0012826201327698072,-0.02811764170473907
-0.0277927283605095,0.00368701921615866,-0.036259592889109626
-0.028019318051519804,0.0073387504926358815,-0.04187290687696077
-0.027435504307504743,0.006075756573409308,-0.047697420086478814
-0.024795102945063263,0.003873662990372395,-0.05479199535329826
-0.022720952983945608,0.008992381481220946,-0.05724670700146817
-0.021806366930832155,0.01801297185011208,-0.052545961807481945
-0.021648576876032166,0.02625297383929137,-0.04620653999154456
-0.02475208748364821,0.0338679674314335,-0.03957915032515302
-0.028026186555507593,0.03776902667596005,-0.03375140659045428
-0.029546075893449597,0.034568514820421115,-0.02651749127835501
-0.032161970011657104,0.026264307962264866,-0.019885868823621422
-0.03489192749839276,0.011989352060481906,-0.0217083070310764
-0.035168472095392644,-0.006647363079537172,-0.033614425774430856
-0.03433076199144125,-0.02020264946622774,-0.0412956542277243
-0.034424872865201905,-0.025300898414570838,-0.03406733594601974
-0.03542737249517813,-0.03111605838057585,-0.019950994101236574
-0.03347346864757128,-0.04442980571184307,-0.01347135730611626
-0.028656730137299746,-0.05816917109768838,-0.013595350537798367
-0.02318143924640026,-0.05946305100223981,-0.009968223821488209
-0.020043262338731438,-0.04467666076379828,-0.0014679637843073579
-0.019936385797336698,-0.027160082026966847,0.0016664903341734316
-0.01933038583956659,-0.016313848391291685,-0.00041460310740149
-0.017114445654442534,-0.00774243198975455,0.00018209831864623993
-0.011765157978516072,0.0011535825024111546,0.0004695116047059855
-0.005332136879587779,0.0035612315514299553,-0.002843115908035543
5.6965358652405484e-05,0.0017427926195523469,-0.014725977962370962
0.0012932138133692206,-0.00021167657848764065,-0.03258397555327974
-0.002681840214791009,-0.002093207513098605,-0.044366959627950564
-0.007964235010149423,-0.0011495404805828002,-0.04394841016619466
-0.010148321052838583,0.0024464743546559475,-0.03450701115070842
-0.008805515790299978,0.004773949967784574,-0.025916679078363813
-0.008645226444059517,0.002137355977538391,-0.027428221073932946
-0.010717314580688253,-0.007221409305202542,-0.042441097320988774
-0.013813256373396143,-0.013578303878603037,-0.05874239286640659
-0.017057695004041307,-0.008994500603876077,-0.05846736530656926
-0.018297463611816056,-0.00570886732020881,-0.044512577005662024
-0.017823158486862667,-0.006243537882255623,-0.03782312705880031
-0.020943389245076105,-0.0012494043630795204,-0.03778997779591009
-0.02526582102291286,0.006798926733608823,-0.029922928661108017
-0.028098596885683946,0.007756551894999575,-0.015201894711935893
-0.030681567295687273,0.0055994091781030875,-0.0027097798920294736
-0.032800253393361345,0.01025252822728362,0.008903618436306715
-0.03408552220207639,0.018930060832644813,0.019091612557531334
-0.03450712756603025,0.025231949621229433,0.022260941477725282
-0.03591539280023426,0.025024250135174952,0.017309654140262865
-0.038202404539333656,0.017057816876331344,0.00725008430890739
-0.03918452057405375,0.004788095338881249,-0.0021511818886210676
-0.03853234738926403,-0.007757894309179392,-0.005339236849977169
-0.036987519706599414,-0.02002364090003539,-0.006981607384659583
-0.035764587664743885,-0.02931700691988226,-0.020490128008532338
-0.03603028744691983,-0.031850555387791246,-0.04579967571771704
-0.03515382559271529,-0.025474424546700902,-0.06300797394942492
-0.03263033795519732,-0.013168975783628412,-0.0649969297228381
-0.030273060474428348,-0.0018719200625127996,-0.05793502350570634
-0.027812890039058402,0.004017391802335624,-0.0460188057331834
-0.024971808670670725,0.0064228943301714025,-0.033054097002604976
-0.022626192730967887,0.007782778084219899,-0.023469603547709994
-0.019758186681428924,0.008848555808071978,-0.020797577235498466
-0.01792217153706588,0.01300451003771741,-0.025212271793861873
-0.01814583629311528,0.020843970560235903,-0.03093778286711313
-0.01729871473798994,0.02694938848435413,-0.03462021049926989
-0.01618864007468801,0.027072708689956926,-0.034472144761821255
-0.01628049176360946,0.025018722226377577,-0.030384184356080368
-0.017823849702836014,0.02087708344333805,-0.025647170332376845
-0.018274347894475795,0.014249269042920787,-0.025045736038009636
-0.018161808839067817,0.006298278549365932,-0.025283219656557776
-0.018347765944781713,-0.003262604877818376,-0.02410657180007547
-0.019203409465262666,-0.013988058526592795,-0.02039496393990703
-0.022558635464520194,-0.026914081900031306,-0.017315333025180735
-0.027514675821294077,-0.041867595427902415,-0.017658081560512073
-0.03070352249778807,-0.054686366638634354,-0.0191754679690348
-0.03127401214442216,-0.06131999543868005,-0.019484568838379346
-0.03184120214427821,-0.06210814171936363,-0.021642024876200594
-0.033148367947433144,-0.058397999964654446,-0.030819803214399144
-0.03310875763418153,-0.05458637679112144,-0.044327403884381056
-0.03386616299394518,-0.04938961865263991,-0.055032753152772784
-0.037486002838704735,-0.035784476494882256,-0.057441237004240975
-0.038997317460598424,-0.016365807823603973,-0.053900886996416375
-0.037671725294785574,0.0022027074919606093,-0.05056474037701264
-0.03562461643014103,0.016673788195475936,-0.046338955144165084
-0.03507945075398311,0.02316691643500235,-0.04100801743334159
-0.03392995859030634,0.018547083527664654,-0.039937003748491406
-0.03128102616756223,0.010208006642642431,-0.04255943713360466
-0.028596217816811986,0.006133584065537434,-0.04285600516595878
-0.02590367876109667,0.0075434304562804755,-0.03515094431350008
-0.021900059437029995,0.014255611858970951,-0.02463412056386005
-0.01803903614927549,0.02235203646705486,-0.02349348142161034
-0.014723824278917164,0.026852851078729145,-0.03911846943083219
-0.011783553418354131,0.028295255106058903,-0.057301596825709566
-0.01091074591386132,0.027527104975888506,-0.05977871114737354
-0.007900755008449778,0.02710023727559019,-0.04936605182592757
-0.003277071755292127,0.02807464807119686,-0.033127049391623586
-0.0016222085150729981,0.028296923119341955,-0.005640897143166512
-0.006284820756263798,0.027432575734565035,0.02174155815737322
-0.012148347195761744,0.023485485144192353,0.034999287890968844
-0.014115091289568227,0.014305862350738607,0.03696271596709266
-0.013501759895007126,0.0029422167244774755,0.03933673360734247
-0.012593178325914778,-0.0066762468122760765,0.04072791489306837
-0.012924773727718275,-0.012131582479923964,0.028637296054512262
-0.015487148630199954,-0.014131726857158355,0.0002251414059628587
-0.018604559954837896,-0.021923822714597918,-0.024511584342690185
-0.020768940885318443,-0.03884892430505715,-0.028976757675991394
-0.021631238269037567,-0.056268760090461,-0.02065379339910578
-0.021636520614265464,-0.063409584981855,-0.016259913536487147
-0.02143321034964174,-0.05649428931064904,-0.015578336387989111
-0.022563483071280643,-0.04293434540159069,-0.012911003068438731
-0.024018068870645948,-0.03161849235766567,-0.006845563348178985
-0.024667950128787197,-0.02234890234831255,-0.0009555675433148281
-0.02319382838322781,-0.011656487004074734,0.001022021820062946
-0.0214982883335324,-0.001595157755218679,-0.0037005736430728575
-0.02135981594619807,0.005494985543919029,-0.011275360520812683
-0.022277183234109543,0.009990863873099443,-0.018472737792762928
-0.022667554731015116,0.011134816304547712,-0.027462447178550065
-0.02213170773757156,0.007950914550747257,-0.037757512473035604
-0.021994588678353466,0.0032025734526541783,-0.04381111284601502
-0.022910608095116913,0.0014236678680390469,-0.047106070269364864
-0.023673790565226227,0.0025193990040861536,-0.05370077633415349
-0.02291677810717374,0.0031476020012632944,-0.05696064545190893
-0.0220703241211595,0.002716461722229724,-0.05321364005794749
-0.02303979817952495,0.0029211798846517922,-0.05092437277198769
-0.025458737582084723,0.0038882890294189565,-0.047951125452527776
-0.026328487365390174,0.007139095487218583,-0.038449383282568306
-0.026468873329577036,0.01146819704445079,-0.02701528683246579
-0.029097040169290267,0.013508106349036098,-0.022834337869426236
-0.032248291972791776,0.012512631656136364,-0.027897551262867637
-0.03372900391696021,0.010404325621493626,-0.034279892133781686
-0.03420450957491994,0.010111777555721346,-0.032339470635633916
-0.034915337892016396,0.011460630048532039,-0.02313203367521055
-0.035832497815135866,0.01131155022449093,-0.016854315617820248
-0.03494754128041677,0.00866095615492668,-0.0162702508532675
-0.031695781217422336,0.0038975740608293563,-0.020880142983514816
-0.030444596632150933,0.005068162408861099,-0.02787925404845737
-0.029134887881809846,0.01282878019992495,-0.03387714605196379
-0.025344599634991027,0.023197560949483886,-0.03450948133831844
-0.02133399357262533,0.02904799475800246,-0.031232539186021313
-0.02009869240282569,0.029015518521191552,-0.02961627069453243
-0.019113753296551295,0.028044805731042288,-0.03281056342530064
-0.01583096855028998,0.029131328119547106,-0.03619265044108033
-0.01301340580539545,0.029217744668130763,-0.03772935087908991
-0.012476953997975215,0.022334012101055123,-0.03998176907771267
-0.012860541573900264,0.008978120604297146,-0.040793958760332316
-0.01262858131667599,-0.006261101589188911,-0.03736324651981704
-0.013217822925071232,-0.01706909461063333,-0.03180108615197241
-0.015927033018670045,-0.02901553307310678,-0.031039737223181874
-0.018775042917695828,-0.04770804298459552,-0.03652507075457834
-0.02098367622238584,-0.059053560107713565,-0.041869636334013194
-0.02497203240636736,-0.054264361097011715,-0.03801765342359431
-0.02904623033828102,-0.04079984137206338,-0.02531981408537831
-0.031097599276108667,-0.02668991328391712,-0.013891941307520028
-0.03178704355377704,-0.018557073417468928,-0.012237060218467377
-0.03164196459692903,-0.01980062916118186,-0.016020740076783113
-0.03058466609218158,-0.026269221052643843,-0.01834767135733273
-0.028271582777961157,-0.02886172842408996,-0.017302902051596902
-0.0266032584477216,-0.02887835944420658,-0.01784366395440884
-0.025818710128078237,-0.03281180397607386,-0.023213890017359518
-0.024776521968306042,-0.037621663068421185,-0.02968793523905333
-0.023395712560159154,-0.03551951886038296,-0.03426257171668112
-0.022982047084951773,-0.026212645025225356,-0.03508681766106747
-0.023082886400516145,-0.016807754946057685,-0.030090372092672624
-0.023620452338946052,-0.013307570043252781,-0.019840177628793754
-0.023384587620967068,-0.016395239072153345,-0.00751396146370098
-0.023203576347441413,-0.022099664420238696,-0.0022799511043558596
-0.023408005290548317,-0.024861914425855502,-0.006183571258588927
-0.022096903194324113,-0.021063608073745854,-0.01084326777345268
-0.02106948522850871,-0.0103309548649122,-0.010871431186387781
-0.022230782633414492,0.0008110608860079083,-0.008985954991658218
-0.023010781660559587,0.005739750577049563,-0.013747421689913608
-0.021159767129574902,0.005977621185593307,-0.019457042071735486
-0.018092307072947733,0.006738509000570048,-0.016072615835582837
-0.015129077837627847,0.01198308018501848,-0.00549895685253432
-0.015449286365765147,0.016625539501546882,0.0018321097741136327
-0.01793004594219383,0.013284005035529844,-0.004058221747982316
-0.022781488951295614,0.00654367158858804,-0.017291418771492317
-0.028086105885449797,0.004294890004530316,-0.029562685085693374
-0.03042778007511515,0.01848670217441395,-0.034993583540199324
-0.029083374101901427,0.0481705428683199,-0.03337116868351586
-0.02818800203385763,0.07094633474480361,-0.03077042129007168
-0.02905122164520435,0.07272538641700521,-0.03279251541243866
-0.028133243176853284,0.06407617911463603,-0.0372755566786509
-0.025229826860595495,0.054953932703938335,-0.0398746196879074
-0.023354714357992634,0.041676095861475915,-0.041085993871092796
-0.023257991415448487,0.02019925341301132,-0.043184267269680277
-0.02512468745408114,-0.006945833320060046,-0.044849031837657094
-0.02695078364922665,-0.03249337896704674,-0.04142703619436361
-0.025300676497863606,-0.04995464041712694,-0.031076702725840732
-0.02360010694246739,-0.0694986229063943,-0.02240940557385329
-0.022587508283322677,-0.0966105581028387,-0.03117311280220747
-0.019363134924788028,-0.1111149467760697,-0.053393770940601826
-0.017855869373306632,-0.0905503547983244,-0.06753656634828076
-0.018558277588454075,-0.048526715545449406,-0.06753850902896374
-0.019459022951195948,-0.019106622858089395,-0.061512655520346016
-0.02070773007289972,-0.010507377737667412,-0.050946135161211714
-0.022800182705395855,-0.009687624697107822,-0.036444816942093894
-0.025306277166237123,-0.009336729817732703,-0.02420510645606555
-0.026937916118185967,-0.00818648641143227,-0.015084271581145003
-0.028749467674060725,-0.005327794042386813,-0.004405137133289827
-0.028896876756334677,-0.001761378030096239,0.0062821395658829715
-0.027685675377142616,-0.0011752576938306447,0.015438596165040508
-0.027190666514798068,-0.0036758870010089595,0.0275122256425675
-0.027310064979246818,-0.010779684998851735,0.038636993849650025
-0.02945151754829567,-0.0154602403199533,0.03676606866065413
-0.03042932803509757,-0.011988049664068967,0.020029588995384984
-0.027899392080144025,-0.006237878551473841,1.70570380042534e-06
-0.02444640085741412,-0.0019112248992314562,-0.01125730705098249
-0.024032660803641193,0.0026756715669762343,-0.01618765054445248
-0.025656448997324333,0.009227171176462434,-0.019928023903048597
-0.02680729448911734,0.022175810954649933,-0.02311541175004095
-0.027758418582379818,0.04119934237678535,-0.02374297400820069
-0.028858246878371574,0.0540799846930895,-0.020136527382419445
-0.028436004868126474,0.05233125921222381,-0.014971300515753683
-0.026601244826451875,0.04557120701065287,-0.013636981748277321
-0.024446171664749272,0.04058701961184852,-0.01811776564863976
-0.023116595912142657,0.034163334930781275,-0.02837173451553099
-0.023958509700605646,0.025155537514365278,-0.037035217246739194
-0.024324666810571216,0.015701687516411766,-0.03721567918546498
-0.026221194275422022,0.0048949177653412335,-0.028158337954664603
-0.02710158696572762,-0.0053192852647043765,-0.0171130941453157
-0.02603015127533581,-0.015149015780480113,-0.010682936590455938
-0.0243378417508211,-0.028115315217291936,-0.01232434169651242
-0.0214842330024112,-0.042199197196168825,-0.017735706933308393
-0.01867440005298704,-0.04942932719131932,-0.02440441858198028
-0.017424472389393486,-0.04440660268301144,-0.030773149774177
-0.016163048712769523,-0.03393496808712371,-0.030932642403058708
-0.01561857425258495,-0.02804416544677224,-0.02559226231824141
-0.017799384295358323,-0.028029988243361004,-0.021998455849825405
-0.018453336451784708,-0.029164621082600206,-0.02329059861949645
-0.018399157852400094,-0.027742156817112118,-0.028157021006336436
-0.017802742149797268,-0.019606086425483227,-0.03453640965744853
-0.017496617147116922,-0.007120785994629841,-0.037638550566043705
-0.01887743746920023,0.0035831408240483142,-0.03784297950915061
-0.021748974177171476,0.009280564881919418,-0.03759081300813705
-0.024188158931792714,0.013498547559720464,-0.038274170947261155
-0.025217499569407664,0.01977198917302303,-0.03700219531310722
-0.026895861083175987,0.02500367372704204,-0.034623164538061246
-0.02981281249958556,0.028785783797502518,-0.03730480602825992
-0.031494964787270874,0.03734276469913311,-0.04619779429049231
-0.0296532925858628,0.04715083196060732,-0.052936255087843165
-0.02645872336870525,0.045607841457240283,-0.0480606104247272
-0.02531815152906347,0.029907969292253256,-0.040712100599193946
-0.02418335498077795,0.014900959286023863,-0.03820591155090369
-0.022943881049286574,-0.00024829265043990745,-0.03678507709992118
-0.022736792743671685,-0.01425363097951049,-0.02979891542054247
-0.02222408147645183,-0.02241590482299216,-0.019107792468275875
-0.0192097359104082,-0.02698763091757428,-0.008772688488534186
-0.01608254387974739,-0.03258206925238483,0.0013085940508972271
-0.014002063835505396,-0.0382333601010032,0.004639593498723116
-0.013372395187616348,-0.03573008143575862,-0.005703688657376915
-0.014479785022558644,-0.020177896658424288,-0.02014175697695464
-0.01442783741367748,0.004931092917104252,-0.029478494980139658
-0.012690029507211875,0.026833095034817234,-0.03190704956068657
-0.015057536074891686,0.040573500882601365,-0.02741817297646776
-0.019290659110993147,0.04615061334334314,-0.021654705051332712
-0.02155581569240894,0.04039005216327496,-0.023309657990466803
-0.020262608813936822,0.025796245608944446,-0.02680695070012007
-0.020938474335707724,0.004182118118478684,-0.021901978470850736
-0.026360305128036998,-0.017236225176020525,-0.01427281677024439
-0.03375532105565071,-0.031815383408684283,-0.01257140320376493
-0.0394347334804479,-0.04371766772237606,-0.019775197870330885
-0.04043256922159344,-0.06383455911418423,-0.030021592465345748
-0.03938094596378505,-0.09255764598492533,-0.03525647480273619
-0.03888855644618161,-0.11983994772890583,-0.0372091235476546
-0.03852252120850608,-0.13023776409681886,-0.04320947118685581
-0.03735016071004793,-0.11308979446766898,-0.05565860556089319
-0.035454453609418124,-0.07665487646590918,-0.06715362542308867
-0.033155596611322835,-0.032993117201840505,-0.06607967952731997
-0.030259781851782463,0.008329951924679335,-0.05407501885201782
-0.026624955353327096,0.036655594158219174,-0.0393903064832557
-0.022528163754031993,0.04855679071624763,-0.022843960323370993
-0.018369528334005736,0.04954398173140362,-0.010831143299583346
-0.015609497495461255,0.044930551666766405,-0.004983072358299978
-0.012651073120650835,0.037947283999528736,-0.0025243082291126484
-0.011239015293540433,0.032862411899259314,-0.0010624460173858097
-0.011624219041550532,0.031027317163534462,0.0040254872146761045
-0.011700281902449206,0.029652699595317245,0.01341717506875284
-0.012764047824020963,0.024930170184234157,0.025288574761361815
-0.015727053323644213,0.010142673090740573,0.03210042632417753
-0.019734865418286063,-0.017278647646890022,0.025368970455019735
-0.021548605218413286,-0.04538167922873981,0.005410799985838821
-0.019483495634631254,-0.059398233133833855,-0.01792242437659297
-0.01664060437178705,-0.05014597263652831,-0.030292814699350856
-0.017472882973379456,-0.03019268115167506,-0.0288954015559284
-0.021173189452383667,-0.018729564544628374,-0.026566500309854746
-0.023867754862294532,-0.014967581591918133,-0.029130307666491717
-0.024705612304387614,-0.007139913122955477,-0.030295952456071973
-0.025199546143994667,0.003243036417188705,-0.029511369575629942
-0.024660106646479107,0.00917829129321035,-0.030592815164709464
-0.02374639552726876,0.011581683793338016,-0.03582913996069692
-0.02466499245201703,0.01246062765858369,-0.04021961649414152
-0.026341873308410868,0.011861371604027227,-0.03840351564576849
-0.026957053705700673,0.012108912414987572,-0.031697934900876135
-0.02821665839292109,0.013460838090395555,-0.029482864192686975
-0.030298224373837,0.012615184459718876,-0.032274172554025427
-0.03066066710744053,0.010284089512424543,-0.03173460572725162
-0.028833843316533603,0.011184414688614197,-0.021757028662250377
-0.02688766471692361,0.013888677131035365,-0.011748194992833305
-0.0252084373641992,0.014741619452252053,-0.015353891285485588
-0.023895965568954125,0.012725611668429337,-0.025999041099566966
-0.022721209461451508,0.009196258361043874,-0.030380340831470676
-0.022165202608448453,0.005626479378406657,-0.02949575900856871
-0.022357568013831042,0.003285294951638207,-0.028069931431673467
-0.022872582121635787,0.003291923803772079,-0.0302208645734936
-0.02275801671203226,0.0028023530376231065,-0.04066804103786126
-0.022921167328604497,0.0012325200486884569,-0.05541797145269811
-0.0229946290346561,-0.0011729538300642162,-0.06400573329301551
-0.022686494048684835,-0.0030466333100775955,-0.06171039422042668
-0.023995080482563935,-0.005714124199585058,-0.05055196015746333
-0.025681381885078736,-0.006473573193943594,-0.036377543437993154
-0.025482380806352012,-0.005522255378309637,-0.0262902321992442
-0.024639617549837567,-0.00513462100570905,-0.02132473855454009
-0.026168892873101868,-0.009277187928091735,-0.016046491509769112
-0.02792111990856938,-0.011588816050789319,-0.002825610636136844
-0.029829820050508715,-0.0054575566537096165,0.016355119441868737
-0.0317505509883631,0.004509035989030963,0.033258871553698555
-0.031003270123619586,0.011724079740815796,0.032875446777325124
-0.028264978027436882,0.014944542272132821,0.010354288860980887
-0.026857494958676398,0.013700626368517987,-0.01420108583261026
-0.026420902941026725,0.009417998626304325,-0.022381449525710195
-0.026940566385746934,0.006316584403975867,-0.020161873180768453
-0.02831970232364256,0.005244556632533204,-0.021255098545225337
-0.029997894671396352,0.005453400717669865,-0.03038626891793683
-0.028773059966624714,0.019405522834858857,-0.04569849988911301
-0.026050191081594676,0.04635534423869103,-0.055994558351812884
-0.023841208530939184,0.06814036896685138,-0.057155979447998106
-0.023654632968828082,0.07680854469072074,-0.05918004535487853
-0.024075028704828583,0.07540542719652876,-0.06725190178258345
-0.022048299797461368,0.06814172229496762,-0.07370874664047733
-0.018461636500433087,0.05931074338150211,-0.07324831676669419
-0.015258095118042547,0.05407733260653913,-0.06851047510281205
-0.012863399206253234,0.059800360759254545,-0.061223421653266996
-0.011851852832478471,0.0691193708917126,-0.04733261448564008
-0.011332158464938402,0.057765446399571374,-0.024730241420911625
-0.011853720934595913,0.017106900486396626,-0.002081782668028609
-0.014939778338884935,-0.047508259740425274,-0.00013919344610258122
-0.01907310615933966,-0.12104624329367653,-0.015909572539385408
-0.02095437412208412,-0.16942672664299607,-0.019120572687825188
-0.022790742150391452,-0.17952160851564258,-0.013985391888127197
-0.023198335838969797,-0.16719986160751432,-0.02087407119688578
-0.0234935632761335,-0.1541791280033067,-0.03290021777502261
-0.02632122595969122,-0.14281152107287198,-0.03565187944332138
-0.029565429940703325,-0.11903768609045073,-0.023289125238079578
-0.031325591407949105,-0.09003499144455418,-0.0052880554903822485
-0.0320438266498968,-0.07325784827116877,0.0005148320383341343
-0.03211784496670589,-0.06305278657237068,-0.00182320161457028
-0.030409863029490225,-0.04410043766256422,0.007021252258709865
-0.027677237085299566,-0.01646981581870932,0.025750559871084988
-0.026697445719037205,0.006738827778463019,0.039003571146167815
-0.02729785774135962,0.015598543541273102,0.03614871820900589
-0.025228771846741438,0.014736002412973903,0.022171025193529204
-0.024655897504999302,0.009369296094519086,0.004335332960181404
-0.025960805942304432,0.0037893553326284746,-0.01093071205104934
-0.025248613383155316,0.0022966200958762784,-0.017174004824482836
-0.023038839572109282,0.007925260433694348,-0.01241191421286203
-0.02166445665352512,0.015666209947085008,-0.005445978331408696
-0.022012178305885755,0.02029669667535927,-0.00705524053046247
-0.022546531909029,0.0227125365199754,-0.01727202470647171
-0.02205981763836462,0.02238431989098899,-0.028721413400489837
-0.02274071994179394,0.01978139698621817,-0.03380956331966445
-0.02412701905996073,0.018982602341566235,-0.02785909964586608
-0.02496856905054301,0.01897623405966442,-0.019700559278135188
-0.026672232706914656,0.01996072387555614,-0.022474105207948014
-0.02978695192723535,0.0226619031309383,-0.033665928640402853
-0.030759110813960433,0.022186894057085738,-0.03890431980835274
-0.03135510633001104,0.019519051420502365,-0.03497791112749837
-0.03184123488608748,0.020765832232427783,-0.03386345997569151
-0.029507949875551276,0.024556564312661067,-0.04047901165904477
-0.026943407647195272,0.02664133171492722,-0.04560044908430427
-0.025246048608096316,0.025904741050908342,-0.04476803951547481
-0.02221797149104532,0.02324868182768114,-0.043476218706928194
-0.018200476915808395,0.020490480892476626,-0.04737015115097165
-0.015702855307608843,0.01777165016392246,-0.05394031904870644
-0.013920555829827208,0.016716370737412944,-0.0543333007954061
-0.011800139873230364,0.020028988728881814,-0.04928769340040162
-0.010943853339995258,0.025968414774979465,-0.03997177191195078
-0.01148972751252586,0.028670980100287125,-0.025270044716307893
-0.014192553862812929,0.027482588848215528,-0.0132911636683275
-0.018167364032706246,0.021764251869171858,-0.01176189925899962
-0.02108497756125871,0.01460138719266979,-0.019216069631511346
-0.022871738110552542,0.007453515536326449,-0.031808125640964136
-0.024554326955694705,-0.00020457321170397336,-0.042969550122506917
-0.02517621760489419,-0.00663221362628974,-0.0446718986495398
-0.024924722310970537,-0.010305503565177787,-0.03778281097766012
-0.026201856599072926,-0.014952245692256838,-0.03324841964058578
-0.02773984851955902,-0.023190317733678967,-0.03385769377928227
-0.026202016670140438,-0.031971168937161565,-0.031030780519358814
-0.023121023332350887,-0.033459127735113725,-0.022628448277828284
-0.021254760213196278,-0.02627496542118024,-0.013564713299274445
-0.021489888240466826,-0.018306174752069637,-0.0050517701311036944
-0.021442405341076665,-0.012811982742277905,0.00088094896000257
-0.02078991019516252,-0.010992766874551307,0.0007731414370937273
-0.019783994503086433,-0.009020483048516326,-0.005670239715982461
-0.019766333934967406,-0.006500367362605175,-0.017011228919727728
-0.01821748446673155,-0.004591735432768473,-0.030218307074392214
-0.018385368093731813,-0.00247903767558455,-0.039952490624273196
-0.02008864794333931,0.00020515837206858123,-0.04487200567382388
-0.020981011402909644,0.004687577074946603,-0.04589915988617577
-0.02064699037873652,0.009999190297094174,-0.04169810199528001
-0.020105282601434737,0.012829141269321553,-0.03308612940600142
-0.020518762539722957,0.012981720828975085,-0.0232149577641394
-0.022133166567073204,0.00876897138368804,-0.014487478438240942
-0.024902994482545182,-4.791433916295773e-06,-0.011008756700903177
-0.02627916182973422,-0.011337558134982828,-0.014428112081077415
-0.024121793103404343,-0.019488421457936056,-0.0192586758203106
-0.022014286514604464,-0.023898039216874167,-0.021711355657316744
-0.02064990985672921,-0.02554238926677499,-0.022597201677854173
-0.021532536266022362,-0.028065718652214855,-0.025111387003562413
-0.024489558200002648,-0.0317233607347589,-0.02764504824881442
-0.02674491952348035,-0.03429298521950841,-0.032895859476411715
-0.02791940642055124,-0.03290220774943009,-0.04397091470309533
-0.02920619044743944,-0.02631963070598431,-0.053095558541826904
-0.030654122383566573,-0.015574931239825673,-0.05193315519136377
-0.0315706456603948,-0.006506430509034544,-0.04452973007573746
-0.03186895264661871,-0.0010319882903786493,-0.03339804243296385
-0.031114886951399967,0.006032270903233439,-0.019314687961013988
-0.030383122066268697,0.010560005648585502,-0.007576923508167965
-0.03003159145009704,0.00836009257909609,-0.0017161050891445484
-0.02985403625643812,0.005378436526370933,0.0025688229925435735
-0.029708155125263147,0.004695349616667954,0.005804174179502297
-0.029512370019801892,0.00508799030285445,0.0030596031592722284
-0.0280472740996629,0.00469864062324632,-0.008532339961675461
-0.02546374344092328,0.003679316705529345,-0.021713494788855314
-0.024422804926871322,0.001136633272835752,-0.02583932291599922
-0.02411179775663186,-0.0035914811178372474,-0.026675403205445036
-0.02271762969030533,-0.008479781172354706,-0.0300314168271143
-0.020546678570099175,-0.010664770343282726,-0.02867172224796377
-0.01915225038828794,-0.011983197509835009,-0.021142022887943313
-0.018671775251277722,-0.015839110346860252,-0.019187074940418825
-0.017501413822174072,-0.019493667423375882,-0.024772694814600982
-0.01702775261946954,-0.01723116474749986,-0.02981978286697995
-0.01934867032105103,-0.010070584721688647,-0.03312873741379008
-0.0228293956752168,-0.006276108251768164,-0.03666958218673244
-0.024119572117342614,-0.007891145287430845,-0.037677291402360424
-0.023781039999448694,-0.007577209998999024,-0.037823181628482416
-0.024401548216701485,0.00389336946682306,-0.040167346014641225
-0.02362521263421513,0.020104680515942164,-0.04439886106410995
-0.020983767171856016,0.03242512684664689,-0.044727767090080306
-0.018904524040408432,0.041589832108002156,-0.03667490091174841
-0.020223749743308872,0.04567507130559534,-0.028954720619367436
-0.02358976962568704,0.04185224315733649,-0.031002524337964132
-0.025619006919441745,0.03079731686739251,-0.03320635005366057
-0.025079936676775105,0.01414273265254451,-0.024730261429795064
-0.023497121219406836,-0.0008026478894862521,-0.014278502021625172
-0.022132424419396557,-0.00678204787618597,-0.01461499141441891
-0.019690683984663337,-0.0105840126707335,-0.01912906918732915
-0.020787558241863735,-0.020037652575410903,-0.018583315977593884
-0.023959208192536607,-0.03855887189274654,-0.018202081264462322
-0.023810094717191532,-0.06220286013558507,-0.026932122636935674
-0.022026259102858603,-0.0803757575340569,-0.04076006371178664
-0.021913418095209636,-0.08439231169177219,-0.050448012189008296
-0.0228487351705553,-0.07252706564031541,-0.05281312405713834
-0.024447121177217923,-0.047748570068506524,-0.0514207458763849
-0.025010134777403437,-0.018795002688420936,-0.047514477046206594
-0.02391930865996983,0.0020179124931019032,-0.03828195985988714
-0.022475158402812667,0.00583061500947224,-0.029868264391552657
-0.021034809833508916,0.0016588458038313547,-0.026938942028209567
-0.01964014518307522,0.006229944574442925,-0.021548146833083592
-0.019636598153738305,0.021780482711619698,-0.007627751983818598
-0.019578188585001044,0.03997558087576181,0.010239989023830276
-0.018868429833673872,0.056773355026962236,0.019041635823668912
-0.017071115507860668,0.06402979488484561,0.016348320059478283
-0.015943860489642248,0.06049772127880715,0.011813021956186276
-0.016913296349230222,0.0503803494211752,0.012033055099891499
-0.01907218393171206,0.03345828008605167,0.010477619980520103
-0.020819028577534482,0.010500643838895485,0.0016933159940890619
-0.022844542399980128,-0.012779924873029813,-0.00465747325506527
-0.02649435555213131,-0.03157320315949619,0.0002730810990669852
-0.029926217393949628,-0.0469668630103115,0.012000176866422407
-0.031159630452748388,-0.05659387170453556,0.015017440091469325
-0.031217889045365155,-0.060443486290751025,0.0038957705328357406
-0.03125915100099519,-0.06360890256473795,-0.011318182259856258
-0.031917843443807214,-0.06338560342555866,-0.021612626369460486
-0.033289055863860995,-0.057601439038990065,-0.025865072529995814
-0.03407123949727975,-0.04514865213423036,-0.029126329536666162
-0.03345641016494483,-0.029793700377922505,-0.03571723937056959
-0.03202311563654803,-0.01841336052166298,-0.043494317651493475
-0.030949609936214983,-0.011900740901182871,-0.04719130811281502
-0.028893993658130057,-0.006095476237533148,-0.04743733734358102
-0.02641317405505106,0.0001826328031029334,-0.04661138518713415
-0.02444082019792404,0.003353993633936625,-0.04396965232444927
-0.021821715563419275,0.004431107754498953,-0.039593734982190654
-0.017596703401068226,0.0051023889682255685,-0.03757542071980424
-0.014054286111786496,0.00732183661966701,-0.03791805647779256
-0.012224749298184179,0.014097657185629942,-0.03309577004984021
-0.011581379112612922,0.025047151211765595,-0.029446133339661174
-0.013166771168471314,0.0349152869603131,-0.035164732253178954
-0.014528977771988139,0.04185046054772101,-0.049478188884677365
-0.01627351957722567,0.03899621151504107,-0.059136633353773504
-0.019384771803743206,0.029141352570150048,-0.05266516745905392
-0.021381980332080275,0.01977225656446535,-0.038367801607819274
-0.022100448404671624,0.014292573723651003,-0.026520356186665595
-0.02232275073765777,0.012273140782781411,-0.018743805412668735
-0.021619334802380763,0.008524539225618355,-0.01590693136677146
-0.021314024706953205,0.0019525600691849831,-0.015872661606408656
-0.02146205042663496,-0.001478426042922365,-0.011956689377257135
-0.021327630747691728,-0.0015550273246844881,-0.003650086455309065
-0.020984214643249288,-0.0021599867068289313,0.002177709347961354
-0.02128768028342165,-0.004618528237188002,-0.001218782017531339
-0.021036230464233086,-0.0054242295846052,-0.011798943887697533
-0.021718995412811637,-0.0046251752792159095,-0.02111722278641537
-0.02390836198173929,-0.0032321254366252106,-0.02601589403639082
-0.026727018848760054,-0.0020754450815729797,-0.028710541300824843
-0.029354931029956788,-0.0021267517240630696,-0.030173683626344427
-0.030723269446752965,-0.0027941216558247106,-0.029942160836071707
-0.031848794606048614,-0.002113575874318485,-0.02481642150087282
-0.03428622585488483,-0.0010798297580549843,-0.018304017430637032
-0.0352553506672848,-0.002309362116648117,-0.02181613126595039
-0.03319828465464525,-0.006141991889307974,-0.03021995144081302
-0.03169094634358771,-0.009993003914132714,-0.03187750553479418
-0.031229545129463077,-0.012197601790830959,-0.03301327888038941
-0.02969980050693266,-0.013669972759089433,-0.03188688788213767
-0.02936583405244164,-0.01105197770812083,-0.026416528271511197
-0.031059160392032936,-0.00371155806533352,-0.020691813915618695
-0.03216573168174364,0.004300303316995269,-0.01603651253390126
-0.02950185262307059,0.010247137652186211,-0.011373172128514852
-0.02485064760548994,0.013982389646116644,-0.006179040155984694
-0.023148773834691383,0.013899638361181132,-0.002873533276215312
-0.023753276764182374,0.014185892723617144,-0.004554611223284155
-0.022472710043075494,0.015233219528454356,-0.011691264262481127
-0.02011471224250272,0.013370925444178283,-0.019880493709933944
-0.01843534664658364,0.018846063539967872,-0.0212185041164048
-0.017977366951527074,0.03744996865862049,-0.020114186554565094
-0.017657732314546593,0.056294273235835135,-0.022305404854705557
-0.016612659237580374,0.06626931281061843,-0.026335637812735513
-0.01670813435339369,0.06619521445827559,-0.030628489184891805
-0.017956923329620622,0.05846764543093741,-0.03372584251337685
-0.01889767918328289,0.04368276859167963,-0.03293227928224951
-0.01902329495351296,0.020022978787892498,-0.029150123737053946
-0.020471277821343392,-0.01023184995574411,-0.0282703731500078
-0.022427930161939003,-0.044836109736934304,-0.03111168189207092
-0.025310231649200432,-0.07065014506224543,-0.029470065783243626
-0.027379734092392027,-0.07982333772815764,-0.021464598830789328
-0.027976977435173467,-0.08489669562550262,-0.012614080333150923
-0.026542635168880224,-0.09985013457480818,-0.0067127434704161715
-0.0249253189394949,-0.11762195936171338,-0.005000243618269451
-0.02363195198995527,-0.12131194671383128,-0.009020349352795165
-0.022370119040715508,-0.10297267726855353,-0.015706913472968154
-0.02219148700532969,-0.07386101788142696,-0.02102398684655782
-0.023476861315430142,-0.04835084837395698,-0.02274658254464157
-0.026071540560224093,-0.031824576581129804,-0.023254395273397677
-0.0261850691458676,-0.02388417487964034,-0.022837544747744687
-0.02545332972658798,-0.022113787053967826,-0.02169685649278108
-0.02481083538441453,-0.023795368178980425,-0.020289946405682713
-0.024500806830474176,-0.023737335141049698,-0.02172853419324383
-0.02534694067435339,-0.018779946913127787,-0.028139938876847737
-0.027169950044481084,-0.013431770639726892,-0.034342850995017216
-0.02869273885153234,-0.011195261322427541,-0.03605363963288255
-0.02981365832965821,-0.009754537131811958,-0.03698175714816898
-0.030051605790504254,-0.005821842478326289,-0.03941701652365737
-0.029109791285009123,0.0031491133540839655,-0.041007264371728525
-0.02870659955078736,0.012924334441777319,-0.04047028414788656
-0.02830163975886535,0.015017102668934967,-0.03977685628342442
-0.027359794330550358,0.011121234820166137,-0.04016138700535521
-0.026052714019897394,0.00563026151212398,-0.041420535126235336
-0.024569244487793185,0.0037768900256196503,-0.041187206079484895
-0.0231245176109951,0.00768914742366178,-0.03858288982883096
-0.022718631953466684,0.012241389413247816,-0.03699934677570127
-0.024378017769777216,0.013942321857030038,-0.03545563595253043
-0.025487317543593235,0.017585934983799234,-0.03369930345797911
-0.02333457814529538,0.025202982214977965,-0.033608535886742175
-0.018362186892773025,0.03300249591120519,-0.03689335790113546
-0.013400326679402497,0.03351348277647048,-0.042693041905295104
-0.011696999536070507,0.021497207853826694,-0.04932954834657721
-0.011900526260433253,0.011882005310326349,-0.053235133236739784
-0.012249679457454477,0.01262713976757368,-0.050191240006824955
-0.012175803931313567,0.013083009434922133,-0.044622844143304974
-0.013666840459336527,0.010055338862002827,-0.039639355236431584
-0.017419599316781387,0.009591098205419257,-0.03413117156014778
-0.018025213648797944,0.014936465049686376,-0.024438370019197464
-0.015492862075916491,0.019844139387714677,-0.005770275492977817
-0.01265529226657236,0.02246797885163687,0.018328360965824686
-0.011073879250034224,0.024434693841612898,0.032143929274752736
-0.012660935681196861,0.025777811970328912,0.028582366212503985
-0.0154764511535177,0.023065038476488553,0.016766860426287167
-0.01771741699485574,0.014023271432961337,0.001621898604753369
-0.01898043956316542,0.0014703806527904817,-0.020052188119734637
-0.02084191146423109,-0.007773434845148586,-0.04196220470475964
-0.022320373318507336,-0.01225683718075743,-0.05167644121684134
-0.022890888430993073,-0.011171941878274083,-0.050783743063220754
-0.02376141674176324,-0.005419020908448147,-0.04979300865670666
-0.02471202242304571,-0.0012622572285181377,-0.05139493441674858
-0.026505715140956454,0.000156092767156224,-0.0489639860461466
-0.028565247703227215,5.569543048977721e-05,-0.04301701483200304
-0.03048494181712158,0.0005638670472762897,-0.04236486347508617
-0.031057439628057182,0.002041065044977586,-0.046392280637519434
-0.030056233299546875,0.0013188952152631828,-0.04207576421322301
-0.028263199055800214,-0.0021624891815008596,-0.026186085960944183
-0.026698306101025082,-0.005024647180107422,-0.009088825208891649
-0.02499382935639005,-0.0053929311434330884,0.0021484036096808268
-0.02407165629847441,-0.008203728611988481,0.0061159789765952155
-0.024330032829311676,-0.01596576657902915,0.00362324158231786
-0.024408092940575443,-0.02581933222245425,0.0030496009912894806
-0.02203993972216267,-0.028961281714146025,0.00895526409294689
-0.02286562266817782,-0.020576268070726655,0.019616212739492767
-0.026219648134429008,-0.007359605660894886,0.02775842403934803
-0.029245189580251463,4.336817127637005e-05,0.023595795937580988
-0.03052877582376823,0.00036561715432981146,0.007924683814053424
-0.030865336157148704,-0.0019723340756172547,-0.0077050772233633325
-0.0312497686536517,-0.004204074230074184,-0.019778921341639943
-0.03053410182474181,-0.004621839707397157,-0.027696103643393144
-0.029584713047370315,-0.0037679201341234148,-0.02996021976287011
-0.02923232204921078,-0.003141326487821061,-0.03211022703908384
-0.029643793823197484,-0.002444088750053197,-0.037023542972747236
-0.029854767490178347,-0.003129399829049362,-0.04116472337045707
-0.030054179660510272,-0.006028248208167497,-0.043149681005161256
-0.03137319799861871,-0.008106077984848525,-0.0402521800424438
-0.03125374860246666,-0.00600192834099289,-0.03757870217668824
-0.030146284188958816,-0.002491952727723401,-0.03552493581082672
-0.029090215321048163,-0.0014660411125078099,-0.030627816158812493
-0.028416419809218496,-0.003300781600046321,-0.025170216758851893
-0.029066193746984936,-0.006087354904593667,-0.023692426111665554
-0.030130458981147967,-0.0075707225732912775,-0.024501816369593143
-0.030858027457725257,-0.007783518412907142,-0.024188226234400645
-0.030371620596270077,-0.005944154054304818,-0.02237558874185197
-0.02782660158118233,-0.0034160527775384253,-0.019802468159468845
-0.02401092933723703,-0.0024501837287971284,-0.018169201212003827
-0.01917728513944894,-0.0007088249276421266,-0.018563325284048915
-0.014102527529757936,0.0009445132036489667,-0.0220047113543842
-0.012269767466932535,0.00692600315232994,-0.028348915293463506
-0.012762586266035214,0.018174148863181472,-0.03260638550273143
-0.016353842511307448,0.026099314709426835,-0.03419733184273355
-0.020840530851273797,0.02878262421290856,-0.03236551856389269
-0.025454495698795654,0.027929052521358244,-0.02949561530840583
-0.02918687096098438,0.023228349164128304,-0.02821865382429678
-0.03203533196938224,0.01819508906919509,-0.02705207771214191
-0.0317981030093506,0.01670502570050303,-0.02771993968053721
-0.02947639768535737,0.015000608982518315,-0.03028942592209205
-0.026999498004443012,0.011923862984986044,-0.030626026273239404
-0.024534119802410714,0.009910993867379148,-0.02661464168340899
-0.02200160270149354,0.006997819127718685,-0.0210834332392551
-0.02289127769472543,-0.004755060672323452,-0.019690995031851344
-0.02350102658965625,-0.0206245113076875,-0.026322146368329413
-0.022178028302732855,-0.025365457986481488,-0.03487667709123343
-0.01967027310456615,-0.017641887097852305,-0.04151097891735844
-0.015136634829104878,-0.006561459940712666,-0.04690482091973536
-0.012253273780515883,-0.003038982868019957,-0.05260632678982802
-0.012995637007406913,-0.010445567568240222,-0.05705561852664687
-0.01456252812204184,-0.025870835088426247,-0.05227119618211873
-0.014246666069084313,-0.04702566729974933,-0.04069025089847855
-0.011414835171308368,-0.07188360177678987,-0.029126511435606517
-0.008453238478978164,-0.09127958037424833,-0.017211525118909776
-0.0058619057199393865,-0.09693086030893028,-0.007050155090837507
-0.005336376943887444,-0.09145581861957908,-0.00459744842373766
-0.007306415227503749,-0.08239855378633365,-0.005123202754475642
-0.010775946066132747,-0.07269669731613249,-0.002793959765767795
-0.012615973901120014,-0.06364642467815429,-0.0035748257687373552
-0.013626486179418862,-0.049071408284362406,-0.01643344876356423
-0.01766394780133851,-0.032354295399272814,-0.03976859443355352
-0.023354914446827024,-0.022089650883572176,-0.06339285027934238
-0.026687826903071254,-0.018909628124674782,-0.07668808393646032
-0.02749306440819055,-0.019209610400139354,-0.07626789010828361
-0.02898521051974967,-0.019723045625141822,-0.06394305091816932
-0.03279250813648105,-0.016483596482430585,-0.04200397597742267
-0.03685450792545453,-0.005927186521148542,-0.012933669495396316
-0.037865327612962574,0.009420054084330332,0.01583067569299601
-0.03620655115810223,0.023829610654502176,0.04029841875308193
-0.034607492125360295,0.0332501731463708,0.05499831240740605
-0.0334817887051031,0.036586356145562604,0.051172810344723985
-0.031391176889883354,0.03475086123216897,0.03862206722260453
-0.029892400561948307,0.03567984458641149,0.02512284481781535
-0.029942508263047785,0.039575195842189714,0.0073759842962317634
-0.028636066417675465,0.04262735819793306,-0.003960085450671613
-0.025127366825472564,0.04381012331577949,-0.004554310180537868
-0.022502874344354495,0.04232134233461693,-0.0026771101602207636
-0.020611038053175434,0.035031134757446125,-0.006792555723222904
-0.018438397091813385,0.022276501113083214,-0.015501853340538219
-0.016432717529824004,0.011585834727156907,-0.022583310055779293
-0.015276904377969913,0.007218778591777664,-0.02606624912004918
-0.015104485100891907,0.008033458470890764,-0.027601912734098732
-0.01633424290048424,0.010878344255615957,-0.025818786525633186
-0.017659096556599252,0.013944505553808995,-0.02177374881284777
-0.019403572878218256,0.012983768101548776,-0.022275256924331188
-0.020620358554879203,0.009200250133289956,-0.027572868930292316
-0.019902665371773764,0.00851998174766777,-0.033871398045448586
-0.019239983885199763,0.011646342500171158,-0.038199003029149026
-0.019401997633394785,0.015065003026393242,-0.04054374585393816
-0.02119768032571301,0.01421882461727364,-0.04268824704922736
-0.022871452529216185,0.009845129170571454,-0.04529135912889615
-0.02398496690148022,0.006567763193743303,-0.04585470742313191
-0.025641900720074773,0.005948900707153371,-0.04273277590982616
-0.028579956051544286,0.004822913069801871,-0.038368762034224346
-0.030891394999343902,0.003840920271613868,-0.035861958167515695
-0.031124807719606906,0.005904464615014149,-0.03737006045412272
-0.030769537261221558,0.008829440048430115,-0.039644757634960115
-0.03040365845663473,0.0055197233450599015,-0.04196396184852347
-0.028376805857988074,-0.012198153854114935,-0.05182942913961597
-0.025867408112389967,-0.03178507904522121,-0.06648764974670485
-0.023861537556513213,-0.025595154511393048,-0.0731975887902081
-0.02306487294845283,-0.0034342747312621213,-0.07116113556548953
-0.023235987100633793,0.012241143849678338,-0.06628389382967725
-0.02348719681322109,0.015422308933921158,-0.06325839058263227
-0.024785917048575357,0.012514781701611355,-0.053653908253181726
-0.025169390937662683,0.009795446203497704,-0.033387637813575566
-0.025011986508616246,0.00720527486919309,-0.017244708942598663
-0.025452840418438427,0.0023695508843957214,-0.01615547080291435
-0.026303428967366926,-0.002604019982754835,-0.020603929442586377
-0.028561527869896963,-0.0038252183003351092,-0.013752538507105783
-0.0321664811053779,0.001187415477943432,0.002966412694149767
-0.03433641177252866,0.004926874225930078,0.012944596164743416
-0.03557086529326625,-0.003419204404053744,0.005140632310940418
-0.03510179521981627,-0.015269142750184983,-0.01132698162109591
-0.03353634383529425,-0.022708845790475607,-0.017288684830418788
-0.031937619496602565,-0.026344194338889793,-0.01582091863383539
-0.03227886190870777,-0.03237821874790825,-0.01850874650699552
-0.0327328743878752,-0.039395203202730045,-0.027469988708617166
-0.03224544707336463,-0.04002599234809168,-0.03725482019945048
-0.03209735223208554,-0.03345682853250764,-0.046804638259345666
-0.03249810470151715,-0.023813103325664997,-0.05276152296573855
-0.031506260711466894,-0.013832342119712848,-0.05058040187577717
-0.02844714435923379,-0.003399461093067657,-0.04527708370005712
-0.02370504807913676,0.007668346370337531,-0.04242647992214188
-0.01849623367888853,0.017140722775366157,-0.03888309220201336
-0.015613832147209905,0.022319880372378975,-0.030064542443142273
-0.016386247807531618,0.021157906303415075,-0.021710826331400312
-0.01801615144358948,0.016020003386074677,-0.015310646631405689
-0.01925993274198845,0.009321686775365379,-0.010396675861557014
-0.018496855773264542,0.0034836346003430663,-0.004832067133975215
-0.016269515981548466,-0.0019320648334542057,-0.0003337608234232903
-0.014887721590639558,-0.010738614946603775,0.0018974182012243546
-0.0145989815791836,-0.023871400117059238,0.0002788586641599977
-0.014705810826853849,-0.03520239260978997,-0.005279081960907206
-0.01543567304906901,-0.03966490476159379,-0.01145562418969348
-0.01640198206587229,-0.03887938510160893,-0.01351441187580349
-0.017703368939692155,-0.03788768299273215,-0.008005367817531805
-0.018263806850882247,-0.035094755730824545,0.0005785556140835979
-0.017967973690247163,-0.026039519070764072,0.0021689411369152367
-0.018329488739254884,-0.010924560228886548,-0.005952592800895218
-0.019202989278710447,0.004080685812368756,-0.013288908121467102
-0.01977918691409286,0.01587599763297476,-0.016401416360167786
-0.01972157224372495,0.026558498575468548,-0.017518212189315818
-0.02053403113677632,0.037292000342858955,-0.020911516912747175
-0.02191992462030612,0.04382085535326041,-0.02770579703792464
-0.021523581381188706,0.04320216248743236,-0.03528735032887198
-0.02045554356300272,0.04025591988465749,-0.04076321056345478
-0.021787249352200888,0.04095529584446922,-0.04347354479250498
-0.02383448554610368,0.045734806917607784,-0.04468586848815903
-0.023562291971757077,0.05240469181444496,-0.04433162393979728
-0.021331003154045902,0.06229524296941236,-0.04101161903236061
-0.01974261613213457,0.06905942427692935,-0.035797685995930806
-0.019299695850349963,0.06264165858738124,-0.0327346715494059
-0.01925606920849532,0.04376519427751191,-0.03240459773223847
-0.018754528355202638,0.02268398748128675,-0.032391497370554134
-0.020434452380868606,-0.0017888818319988786,-0.031017629225971177
-0.024668539481353946,-0.031484956707572564,-0.028622214813367464
-0.02681507612578571,-0.061133207054808736,-0.022491300114779733
-0.02687158848857507,-0.08639581938041374,-0.011180951332789846
-0.02617164318508003,-0.10963134991470724,-0.000197034736970636
-0.02419127122266218,-0.1347162906313315,0.007624889803992119
-0.021716321498388425,-0.15461770817637444,0.008126082320814021
-0.020481073079281487,-0.1608697057235986,-0.002246059011667967
-0.021402838683570735,-0.15094797709025443,-0.014271930922404863
-0.02269271317345556,-0.11939401883864775,-0.017481977920397185
-0.024279892386402935,-0.07774493133183569,-0.017616572222323157
-0.023770631742081605,-0.047588066081516445,-0.023810536731616594
-0.022121126676211134,-0.029980828912812285,-0.027697044060914777
-0.02386860433034599,-0.017930480680661276,-0.02365657564951107
-0.0282770943158539,-0.007241088496812154,-0.017200791262439452
-0.03249810833949596,0.0018327217503610882,-0.017220614608959295
-0.03292406108812429,0.007289531367860036,-0.02021613545366563
-0.03139954060316086,0.008718720891920384,-0.019121049263048917
-0.03189002018189058,0.01082390190276783,-0.018219761841464788
-0.033508600608911365,0.01625837103347294,-0.02149111605831422
-0.03301766992080957,0.020984731236239895,-0.026059851734316908
-0.031127157853916287,0.02199303162342403,-0.03256121271988377
-0.030432833227678202,0.024546601707697846,-0.04206161611364223
-0.028985545213799924,0.027809039238491096,-0.04936760160489939
-0.0258580366789829,0.02602192762424238,-0.049191745347343385
-0.02461992517055478,0.022804364562034607,-0.04380022073746659
-0.023711954781902023,0.02535780004109256,-0.041458126361249015
-0.021764537450508215,0.031121628126129508,-0.042648109229048714
-0.020588024199241772,0.0333357929775957,-0.04855057704844512
-0.01914224230858963,0.031536066671833396,-0.05289340697345324
-0.01755486118781846,0.02929665606643539,-0.050975842896150425
-0.016788999346317723,0.02646584289323073,-0.04575166167342104
-0.017350461348542012,0.02189345468650572,-0.0425748985435348
-0.018514774637878872,0.017748461687006056,-0.03940453825634904
-0.019464976503513753,0.01561869794386439,-0.029547369194915518
-0.01936457738338504,0.01664149749558419,-0.014385717804543674
-0.019303148292237893,0.018140615793527104,0.00270910345534503
-0.021233843654044904,0.018461687432136387,0.018239381461171433
-0.02365278487559408,0.01528281791252084,0.024468308765790425
-0.023333906938205473,0.010696723620640114,0.02273550671816338
-0.02376155498495791,0.009047810635820497,0.01574935595272109
-0.025764420570340008,0.009866101208899636,0.0016838802139318432
-0.025573361199349165,0.009902626516122837,-0.014845018085907213
-0.024196495360229164,0.00800911493570311,-0.026831919967662543
-0.02309796582267154,0.004680237452703295,-0.03242078309995122
-0.023029777366900817,0.0016297739193760208,-0.03411520447116345
-0.023648408387089148,-0.00044635106632995303,-0.033561376767465845
-0.025127490516752005,-0.0015941755009407643,-0.03177663529640995
-0.026595129384077154,-0.001848840611273772,-0.028742340873577632
-0.026000097932410426,-0.0009894398544929572,-0.023189428247860633
-0.024454253434669226,-0.002077132876365795,-0.019831000827252865
-0.024000097255338915,-0.0031899903660814743,-0.019979772332590073
-0.023620905267307535,-0.005064241122454405,-0.02296489037689753
-0.02294450496265199,-0.0054465263019665144,-0.027470896384329535
-0.02229043275292497,-0.004417298441694584,-0.0307035370497033
-0.02118087104463484,-0.0024663086151122116,-0.03401055801077746
-0.021773639673483558,-0.0020610582396329846,-0.036680285120382905
-0.02139628486474976,-0.004437991719896672,-0.03877492781612091
-0.020296976799727418,-0.00793740946392063,-0.04252327562426217
-0.020371984646772034,-0.009574369869369548,-0.045677927118958905
-0.022204430933925323,-0.008446091669611633,-0.0464866025140509
-0.024237977413577028,-0.0055408395382983144,-0.043777734390459955
-0.023446877094102092,-0.001828684958127269,-0.03870055661536753
-0.021377385564846918,0.0009036360211212013,-0.03643063973868266
-0.019052722564083524,0.0021498351543414174,-0.03930722959921695
-0.017767497411114164,0.002424491412966745,-0.04050335701322183
-0.0170300409081392,0.004752362201543292,-0.03155933882226236
-0.015848412658669986,0.006542170012835413,-0.021726529666921124
-0.013677090464625508,0.006289994416874833,-0.02146147016901523
-0.012920792869408615,0.004979953700967599,-0.025012026526383124
-0.013949500498711132,0.0031836318612477044,-0.024641771233291365
-0.017770744307199493,0.0013743917861575028,-0.018384465874987654
-0.02337902878934983,0.0008780398843555304,-0.01165701905847527
-0.027530650186236016,0.0036982642086513806,-0.008312151294376235
-0.02889219467760995,0.007092316081980243,-0.008249172424257267
-0.029553924832725897,0.0039861110963101964,-0.013122295968059916
-0.029430057111312635,-0.0025667186491773464,-0.02084476000163704
-0.02874804340535775,0.0011093151215391117,-0.027889682314707898
-0.028539136110339314,0.01290429281652905,-0.035055403714068234
-0.028913496862514876,0.018429818737786263,-0.03760052641155198
-0.029569944672402926,0.014942985217203386,-0.03791163908317685
-0.029482269383152016,0.008439636076218449,-0.04101455124327913
-0.029005817850702442,0.005615295322058955,-0.039509523048764095
-0.030568018701160327,0.00370510974789795,-0.029511416869354434
-0.03251046655350365,0.003965096766478382,-0.016891583072720096
-0.03306037615402602,0.004419340712047415,-0.0053740059229312465
-0.03198253398295492,0.0003530595336087572,0.006976976237638155
-0.0299868897855049,-0.001625564209462027,0.01715152757242322
-0.028387697966536507,-0.0020034165117976954,0.02291597229486797
-0.027478739866637625,-0.008587509910285007,0.022089659978519194
-0.027364916604710743,-0.020340025002951734,0.018680641005630605
-0.027353980840416625,-0.028755530365742743,0.022148356947582215
-0.02775487519102171,-0.03232077870052308,0.027463538572192192
-0.029437500415951945,-0.04086983608431183,0.01961004272743594
-0.031019044399727136,-0.05599172800430097,0.0030739947760594077
-0.028812744858441874,-0.06619175110245124,-0.011017021279258188
-0.026914754926110618,-0.06619782652705908,-0.019063347281189635
-0.026215522666461766,-0.05738162508350797,-0.023081438484950922
-0.025373587050125934,-0.04674721276387572,-0.02668038177944254
-0.022444417481892742,-0.041166476876242086,-0.033611217077123
-0.018118240404874086,-0.038745936763007194,-0.04153406189288944
-0.015673014786443673,-0.03499257218209095,-0.04339629231253639
-0.015665069440728985,-0.029310824174899608,-0.038187383324839175
-0.01649023215577472,-0.02489149665052537,-0.03319390816614032
-0.015690371583332308,-0.02417936411802657,-0.03503230618662201
-0.014935890249034856,-0.024340821255464107,-0.04245251329848543
-0.016705727830412798,-0.018608663594932295,-0.044200289266882464
-0.020856816263403744,-0.005621146556222811,-0.03441823719185777
-0.02741950265772175,0.006695800493616844,-0.02148509338439908
-0.03258718061260879,0.009350959771836642,-0.01936686021508649
-0.03183273656759411,0.008085639819910284,-0.02853817022696603
-0.02851956378435716,0.014615570762543939,-0.03901856689481065
-0.027199344913242385,0.028087129976483993,-0.04781661118613556
-0.02715911978157237,0.041880506614688784,-0.057156517868861556
-0.02591122392914258,0.049510075768921524,-0.0633834206382744
-0.024598140953457914,0.044295633415458724,-0.06318198575172573
-0.022978225388214923,0.03036739508388564,-0.06055852281861007
-0.020572993889800273,0.01890920066216495,-0.05815806071041152
-0.016445388610009104,0.00924829419091111,-0.05725750088458881
-0.011679594535962678,-0.00732143098503002,-0.05539567064261064
-0.009831320312514435,-0.020301868062233552,-0.05015947317588143
-0.010878220564336516,-0.023394599338644184,-0.04356479621492326
-0.012471147783799097,-0.025998364435508847,-0.03814405499724671
-0.013089145795674995,-0.028306905733188614,-0.03141050910926424
-0.013299611964612268,-0.02690885594347492,-0.019899140170309693
-0.01520207842986565,-0.023076181605574675,-0.006452452453231672
-0.018348633602727205,-0.01949764737219084,0.0004314296688789909
-0.02104757004417479,-0.016186979337362573,-0.0017775861351765343
-0.023286518626264296,-0.011644950973277446,-0.00622980360276415
-0.024353435946977697,-0.008670739589433651,-0.0072623251980985515
-0.02564787610026542,-0.011218276085855905,-0.00550142431166023
-0.026623851226759143,-0.016554375179111958,-0.005669191068591317
-0.025686787921586074,-0.01779994272510521,-0.007713038030487951
-0.026108506062882952,-0.01088094177248422,-0.0075123730312043335
-0.027460933779366314,-0.0010704335409172927,-0.006603095243917778
-0.028100761483074166,0.0034515655897848774,-0.00489850708618178
-0.02787478115351405,0.002792616669466952,-0.005691329079127172
-0.02563481939432677,0.0025918402570823673,-0.011374901987437624
-0.023095386495697312,0.006827569450251758,-0.01678909575275611
-0.02189314727729652,0.013349776054383256,-0.018303879187442362
-0.021853489670320414,0.017430678781238385,-0.01927787161548622
-0.02287724237248767,0.019023411368834786,-0.021989510059938766
-0.024325958293047734,0.02004393536481075,-0.023485255951527506
-0.025080798877752386,0.019768596757785417,-0.02530789606680628
-0.025180306693073362,0.018592847482068464,-0.031622967071598396
-0.02597934872028418,0.01621150477149058,-0.03950038444600068
-0.026332218112656847,0.013874134310754016,-0.04336396523285657
-0.025567425836925395,0.012131050425523426,-0.040398826968157664
-0.02467908780090511,0.009272099305235315,-0.03674593972391449
-0.025102011932176538,0.0069628395067411475,-0.03556467345333658
-0.02679994395293761,0.005538410277949879,-0.03852542431559414
-0.027691461582435295,0.002976518089781166,-0.045532109652413055
-0.02769875391095411,0.000527234703895374,-0.05063076605438255
-0.028063001082045957,-0.0003495313194434857,-0.05131934449309483
-0.02879138082789723,-0.0009287599027629767,-0.05116252941661514
-0.029034801627858542,-0.0027006492473446997,-0.05372654050006531
-0.02956106254714541,-0.0053143471632211,-0.05822283128509298
-0.029138194804545492,-0.00829402961244341,-0.058413050282979384
-0.027799265808425844,-0.011523835382831749,-0.048318335757358
-0.027022249923902564,-0.012586117009050213,-0.032606025342829525
-0.028213884434080683,-0.012331254765740596,-0.018249000277137384
-0.030864397558616474,-0.01275730573979672,-0.008788711966190021
-0.03280465898569673,-0.007580011697427835,-0.008222241376643069
-0.03271907917223871,0.003982887392339762,-0.013068551197648048
-0.031398518331116065,0.013143631804268807,-0.014038213521416765
-0.02995321665366646,0.01409386550221825,-0.013026998203713447
-0.02790721191558987,0.011714890206349082,-0.013522187146008946
-0.026190811695414595,0.011709465070453007,-0.011631940651568584
-0.02696446426853072,0.010687032045098022,-0.006547690190927824
-0.027899775886908174,0.006438653599616373,-0.00784470648795832
-0.02653250157891307,0.0016501446680194931,-0.012984783097635955
-0.02409958869975526,-0.0013889653018850368,-0.008889822311175521
-0.023992732167243958,0.0016932713151618373,-0.0009525496693640889
-0.02289150324941147,0.01149553463619668,-0.005729335953219561
-0.01981077184609603,0.017728163584251888,-0.021125466446392238
-0.018247701518703252,0.009317782314610668,-0.031400344596477225
-0.017117161405622028,-0.003991528956248658,-0.034309989132452756
-0.01628206518944353,-0.005767530637967866,-0.0329720314766746
-0.0152715110743884,0.006549892077600816,-0.027575286367209628
-0.013723049050895497,0.020782290448551066,-0.01689273449301254
-0.011197378626093268,0.028514958103187382,-0.00567611778024002
-0.00954190909396857,0.03234891846659593,-0.0014964003867135034
-0.011350972272339277,0.031982326618162915,-0.002106693955283845
-0.016416614016634412,0.024631783162476495,-0.0012290902304812334
-0.01791796057659667,0.00953463495534379,0.0024511352876288584
-0.015784980860189535,-0.009518530532659497,0.0037910660921625094
-0.015776902728248388,-0.020983099602744915,0.00035715467561203695
-0.018026164980256,-0.021598312741843984,-0.006526918241434032
-0.018674218154046685,-0.02150827094737906,-0.010638983440003358
-0.016731310097384267,-0.02660615064087324,-0.011643577636277769
-0.016243717254837975,-0.03872452361974865,-0.015463876479770988
-0.017197895431309007,-0.05385367330745794,-0.02282529567310121
-0.017923124687513337,-0.06047433998901397,-0.029912414902355522
-0.020027033315273002,-0.05895347203477286,-0.037073579733259976
-0.02324000706721563,-0.06217695045052096,-0.04666243330575526
-0.025006311261677183,-0.06980201578699052,-0.051874842029064894
-0.025470875698374584,-0.06735962233506143,-0.04806702781934291
-0.024694387320778333,-0.053480373026104644,-0.040365226595895365
-0.02376190241193399,-0.04042583532282151,-0.035949633456766605
-0.025918830942828208,-0.030552688258467242,-0.0352709976141341
-0.028664420824497938,-0.0200442173081683,-0.033535634429426864
-0.02762531948974356,-0.011509090654726606,-0.02738785588007886
-0.027207111997995526,-0.003951703547500074,-0.017821468645706773
-0.028377287890180014,0.004489056664169766,-0.011175359759363346
-0.02948262590507511,0.008159142453223467,-0.01223208528244868
-0.029983708373038098,0.00765810636949027,-0.017536314771859907
-0.030378205337910913,0.006396616754500428,-0.023716745999990962
-0.030383227567654103,0.004508962319960119,-0.025437455406063236
-0.029641438231919892,0.0019357630662852898,-0.02044934626610484
-0.02861890425265301,-0.00098500129297463,-0.014555907000612933
-0.028883880077046342,-0.004459003775991732,-0.013206844414526131
-0.029469338187482208,-0.006622553428314859,-0.014984581866883673
-0.029229122446849942,-0.005034024525230052,-0.014335718333313707
-0.029207394618424587,-0.004182445991318673,-0.012936239727423526
-0.029705613997066393,-0.009682977179181762,-0.015822444765944965
-0.029713020921917632,-0.009811888048716355,-0.02398031938355416
-0.029742754122707993,0.00214113879337674,-0.0298441245831782
-0.029632847144966945,0.01905659337353427,-0.029402315703919157
-0.028169224606244825,0.03056710193050094,-0.02577897066657897
-0.02580095133453142,0.03422640293138102,-0.02219094312749803
-0.024930348445195705,0.032844345696503296,-0.020474624761845917
-0.025180979719152674,0.02891547956096474,-0.022734191588824615
-0.02417081850580871,0.023618176783202216,-0.027061934815719724
-0.02317300641152542,0.015257756786013488,-0.030403434720938094
-0.022992460799287073,0.005007000709156273,-0.034314321965212
-0.022106707547209226,-8.737870871300402e-05,-0.042229756218148395
-0.021016336177126504,0.001906825104924792,-0.04861883644480258
-0.022147376512293704,0.002913223852374358,-0.04526625343714841
-0.026653344320948236,-0.0061645473579119425,-0.03867913255817257
-0.02899467472161632,-0.02170299194403924,-0.03827828913927078
-0.027421530830906704,-0.03284586637164466,-0.04011837881989777
-0.025465262297075242,-0.0349689471477177,-0.041574734495952725
-0.024935156034189276,-0.02947049324575346,-0.04245813761372119
-0.025089540940825827,-0.021451782231451944,-0.04086384069523774
-0.025338764316984452,-0.015920508303679526,-0.035758519516093656
-0.024825447326293215,-0.011314811672491487,-0.027597698135650717
-0.022146008632262237,-0.004627280304703163,-0.017266649592784233
-0.017380338249495253,0.003085018533965922,-0.008543349395040423
-0.014559828741766978,0.011539070328581147,-0.005729112217522925
-0.015512392565142363,0.01819272802094929,-0.008644234185339883
-0.016777816199464723,0.018465663742972538,-0.014080101209401619
-0.014668447875010315,0.015854711818974465,-0.01882997457869351
-0.010482556717761327,0.013906083040637895,-0.021257363187032752
-0.006728120297339046,0.008397028977924492,-0.020917748770443723
-0.00622313973508426,0.0015837205182833713,-0.02068491085083224
-0.009318226148025133,-0.003384761839697603,-0.021132616893737577
-0.012334338862274308,-0.006790382940380368,-0.022236297809286043
-0.014227852261683438,-0.007888775144238025,-0.023525344658992253
-0.017445088815293275,-0.00855774214869598,-0.023497394067817368
-0.021652784198522568,-0.009113842679653317,-0.021500662114704028
-0.024227832909673452,-0.010475442650204059,-0.02187123754993081
-0.025772515073185787,-0.01172523116110824,-0.025880990506266244
-0.02705118640733417,-0.009544682143314276,-0.029655362595804036
-0.027844742362503894,-0.0026186087325186236,-0.02877230326703284
-0.029026379706920125,0.00607663514529122,-0.02733248402364552
-0.02904942630266305,0.012212451110826805,-0.02703949940041639
-0.02896453042922076,0.015153525964706205,-0.02694611066544894
-0.028541178835439496,0.018142980479751714,-0.02631449024192989
-0.028187034331494942,0.019635606804513372,-0.024662451323820278
-0.028544600354507565,0.018415266822557896,-0.02313738332304638
-0.028443681003409438,0.0152483753481647,-0.022470550902653486
-0.029305401767487638,0.012557279660541099,-0.02397404568910133
-0.031088082323549315,0.008843193427310325,-0.026364643417764455
-0.03126414958387613,0.0032153443498827983,-0.02755985588009935
-0.02947968096123077,-0.0010964578223138233,-0.02690055589482654
-0.028760785426129587,-0.003271111381764058,-0.02726975617406424
-0.029622289730468765,-0.009100923307414632,-0.029051840101601556
-0.0315601791953668,-0.018945420379168354,-0.031061073968885466
-0.03563112113624811,-0.023768021492287517,-0.034070668334607035
-0.03878780989907682,-0.0200806407519849,-0.03628643389674835
-0.03961918264394626,-0.015522109606536105,-0.03514737909426913
-0.03813227522186935,-0.014601255315938033,-0.03410407589399256
-0.03450532312854193,-0.012623346265172586,-0.033665262890281156
-0.032555388315813616,-0.006709801255055936,-0.032243213354377076
-0.03289193773525767,-0.004563532002066495,-0.030365998100023717
-0.0312952724925708,-0.008314357728522737,-0.033193748095072806
-0.0282476994470926,-0.012023715498798992,-0.040480761526850984
-0.025141178412013687,-0.013545284673455171,-0.044143809645902365
-0.02118894008162897,-0.014716970326844603,-0.040244402043754235
-0.01825529216148425,-0.016130394214997068,-0.032292937248712406
-0.015852772776270285,-0.014994790944911074,-0.02460217547195498
-0.014230035958462395,-0.007868193279136904,-0.02211365062976256
-0.012582819181261584,0.0024608286821603542,-0.025677616577013396
-0.008898425221559592,0.005471746135299327,-0.029727145374636166
-0.0036248259220883483,0.0003679748772356106,-0.02704179314605426
-0.0017416730315744644,-0.005528439942281693,-0.01726706796034705
-0.0027178157324669883,-0.005592919478658587,-0.005453466656035744
-0.004579138021654217,-6.823827192192766e-05,-0.001141410507443652
-0.006905828740855213,0.010914651284110732,-0.009696292181615718
-0.009476939339947421,0.023152077119448222,-0.022422622350859456
-0.012399798833939712,0.026319396056351252,-0.02493787724233698
-0.01613172935321927,0.02029287861660123,-0.017056830984074622
-0.02065216722257901,0.013491346180671826,-0.006943574589968193
-0.022880092728883028,0.004845980129175587,-0.0027467228846944636
-0.02265145849378314,-0.00870065650815377,-0.007528346941398922
-0.02217871224274859,-0.024864972147042863,-0.016555179172428325
-0.022387457647710107,-0.03897178976330906,-0.024838485842337832
-0.022873944544699043,-0.04039026316604577,-0.026572286515147425
-0.022985688701737672,-0.0247002699325094,-0.019169052393408492
-0.02356218101340346,-0.006532026873173891,-0.011751862075470854
-0.025014833227032796,-0.002399548748144298,-0.014130597264738753
-0.02543154187151231,-0.009705292541184463,-0.026091685867868364
-0.02447329825372435,-0.015126640391827095,-0.039203790947794914
-0.02334356031497009,-0.013934810340288095,-0.043707757868105546
-0.022488951799459755,-0.011067868399550207,-0.03834900780930184
-0.023423346647177823,-0.012171555681561586,-0.030427114324993454
-0.02544352537370287,-0.017057698642020114,-0.026050318410852924
-0.02537164073146414,-0.0192385159607511,-0.025042174456757493
-0.02505275551811792,-0.017416085029253736,-0.0221044374484336
-0.026638350391294807,-0.01081589925888693,-0.015799450920894742
-0.027579264497035183,-0.0016549978454349912,-0.011899198398168664
-0.02765530916803982,0.008142265869537368,-0.013631643923872616
-0.026626343242242,0.019499997506500222,-0.01916944165714085
-0.025517199901514687,0.02500725349818822,-0.02910548573709093
-0.02548418524384033,0.02160662734240759,-0.040344173612538725
-0.026767653253045864,0.014472973816737067,-0.04573420301312581
-0.02819396831910126,0.008713817805983126,-0.04474061279324815
-0.030357921787071973,0.00521960282640066,-0.04004876609542407
-0.032867388654267415,-0.00045302883222575474,-0.031143434171099216
-0.032842646760400385,-0.009970469363906886,-0.020913184926030226
-0.03271847162977792,-0.018244025341118686,-0.012950416930834763
-0.03374566222191788,-0.023151058485382237,-0.014421571904676966
-0.032900137739488855,-0.026091336621902883,-0.025982604711316526
-0.03092181941610761,-0.02820849658746738,-0.04096505290362984
-0.03141034176223911,-0.03773576463572681,-0.057476012443657964
-0.03303714402136393,-0.04715731120086275,-0.06810006743762642
-0.033293294109171256,-0.04395452924654819,-0.06745021528331563
-0.03198064223397523,-0.036209698009770364,-0.05636241985484958
-0.030861672712489963,-0.035310185921844095,-0.040551472920924425
-0.028876007490907796,-0.03927319630747661,-0.026310990506317466
-0.025898523745127022,-0.03956506770919077,-0.013447459423332475
-0.023038221115712076,-0.03497262150631286,-0.004610835276253056
-0.018767506844596937,-0.02907056659751106,0.0004250365464031347
-0.01365465323033277,-0.02237472108390648,0.008753787369641941
-0.01226811855303822,-0.007798584192642011,0.017649106666794978
-0.014695963727717753,0.01682972833805252,0.024267365006380714
-0.01710463584458921,0.038032147131161764,0.03182544242008589
-0.018195243683294393,0.048027330194599926,0.030508042982546613
-0.01664291266934015,0.05203167165745981,0.017290038158535026
-0.015563742636004463,0.050425183871993795,0.005771183623437537
-0.014621862646890804,0.04309691212256439,-0.00012712339980680554
-0.013135358130966779,0.03707890573423356,-0.006585207756870659
-0.011408758837205824,0.03429948992561549,-0.013429134924081154
-0.01085532767319819,0.028982894946238957,-0.019865638023475185
-0.011843732863781042,0.018344524505664594,-0.02457642949593719
-0.014342956092150416,0.006867546744615538,-0.026726895157480612
-0.018922079107142054,-0.0031709789709566394,-0.027732936359825544
-0.02337015757802874,-0.0158433922479162,-0.0247725511144381
-0.02466667865519412,-0.02467157901264727,-0.01679975503066089
-0.022551212168764323,-0.02061466693703551,-0.014758016732230317
-0.020946918084518984,-0.010113783901033457,-0.022769992938265204
-0.02104611303366255,0.00048424561782667297,-0.035743698390433565
-0.02215491986135021,0.009574256182531826,-0.04617368176695891
-0.02337699152121786,0.015485651601920836,-0.04948062269249931
-0.024288401618832722,0.017287289665546268,-0.04720987635664642
-0.02416464667476248,0.01789639463822823,-0.04307269773562439
-0.023259535737452097,0.017768981706467457,-0.03874360481859185
-0.024900276912376285,0.01171656640508445,-0.03631361323641613
-0.027575781132327393,0.0024456644496240187,-0.03629059938248247
-0.028890815883642063,-0.0022894737412570976,-0.03274730988778174
-0.029028997232671827,-0.001815485234146763,-0.02519169356673956
-0.02936875171144493,0.0015468096989934565,-0.024327322535100393
-0.03039375769731123,0.007994099178176839,-0.027110183509648778
-0.03098694287473336,0.010620236935210414,-0.02958779805339873
-0.029816550522809848,0.004127425199840218,-0.03157579340040684
-0.02642072104208637,-0.003474558752714074,-0.03152329009026289
-0.02310215677425731,-0.008106699169729836,-0.026820569473784417
-0.021453084627864882,-0.011263809938100167,-0.020006224076496437
-0.020475890778470784,-0.016075860912678763,-0.015657846233807504
-0.020875582777080126,-0.02461426265654154,-0.014503765669360291
-0.021729714717366733,-0.032515334169147536,-0.011388943676138297
-0.021056010155007243,-0.03269649459980428,-0.005203754881222267
-0.01933430030476302,-0.027334743208484724,-0.001277676801691996
-0.0184045475180028,-0.023731054170639254,-0.004224315944156842
-0.018905611796071753,-0.02333054544578772,-0.013554289580497425
-0.019981307559646666,-0.024668825062690303,-0.024477752958773635
-0.021304129404597916,-0.0234344151976984,-0.03230403672205284
-0.020982823116355576,-0.017315898730885237,-0.035481560189509764
-0.01870108644652646,-0.010549983016971964,-0.036112913221586496
-0.0180481729330495,-0.006240173206606414,-0.03704683331307024
-0.019735796740860678,-0.0032153311622096226,-0.03802133505814709
-0.023367932953988202,0.0011830885568997473,-0.03842917431029491
-0.026458146749064326,0.004912561962555628,-0.037405632610898465
-0.027962392778135836,0.007200500931503484,-0.03542416379787028
-0.029250222723931074,0.008224992598115932,-0.03464060137048364
-0.02996658076881431,0.008886698196874931,-0.03494096017675474
-0.02976367795781698,0.009474836588196922,-0.035633729567052796
-0.02942016908491496,0.0074861222856270615,-0.03366499367984943
-0.03097425724263303,0.002381988224442466,-0.03098663000855595
-0.031352272344520316,-0.0009633151876187185,-0.028962480428162962
-0.029887578421039507,0.0003858258139644022,-0.02703251266211737
-0.028374799512675963,0.0023972040708031273,-0.027324529582983814
-0.026370880732429214,0.0033121252727141837,-0.029356684535741806
-0.024575667339377105,0.0027452260837890208,-0.03215785545762628
-0.02386104461038485,0.0015739155969640706,-0.035032247978961095
-0.02570909600763116,0.0008535399729225901,-0.036094152164878324
-0.028649516025325283,-0.0006112982759987062,-0.03445901529630646
-0.029299382731551304,-0.00287934949483315,-0.03234120231354609
-0.02761460200417787,-0.006164808837638702,-0.031141848012339324
-0.026512014301260933,-0.008521657036908437,-0.03009630017913878
-0.02719688018260058,-0.002630370772749302,-0.028316364478087053
-0.027372110707801767,0.010892724276345689,-0.024924391254899092
-0.02634382326505147,0.022975671527092345,-0.01965813135029748
-0.025432129405089654,0.03008526618941687,-0.01885715391836129
-0.026435323889018036,0.029930828532087617,-0.025731460482347757
-0.026666320991353132,0.023570821213070303,-0.03791415292653255
-0.02454258174111601,0.015911396985757165,-0.046157008910086006
-0.021869433112442493,0.01103906561183976,-0.04503324453253299
-0.020762536223628558,0.004164001438766718,-0.03735017526196316
-0.022547716071130708,-0.008457607691525482,-0.03272401954745874
-0.024516546545783058,-0.02339728962397203,-0.03518889207043685
-0.024576062060077675,-0.03528872912283987,-0.03719559754244983
-0.023334401703323238,-0.04240249836584553,-0.03347805977682583
-0.022733400328434072,-0.03973033744841814,-0.02686286643438507
-0.02324271554243751,-0.027162559490534477,-0.02746806785580702
-0.022700531189912,-0.015357951269834302,-0.03896538328262977
-0.021993726477376185,-0.009321983270638157,-0.0510888930875808
-0.022855831048218533,-0.002022302624027361,-0.04655586235458031
-0.026309751774533652,0.00523762946613715,-0.026608888219925575
-0.03004126119776629,0.004797854217031272,-0.004125161467527505
-0.03237658165744506,-0.005111471182317473,0.00999169333226746
-0.03118729728157632,-0.014798019947193097,0.015084030565049034
-0.028874846975668333,-0.013982179552840535,0.016416399375884794
-0.02949688678199891,-0.00790669128036825,0.022047683160053566
-0.033102220186265185,-0.012075024642399512,0.03180428393534385
-0.0366464264516253,-0.028854825359303504,0.03231833397876471
-0.037675425119232386,-0.04560150409815833,0.01985313974728342
-0.036642584746005014,-0.055415941460523754,0.0019351662103872513
-0.033617790904827416,-0.05470853648148477,-0.013243156899989117
-0.029900495064794086,-0.046352386561920866,-0.020632065570680425
-0.02596587364678271,-0.0343824976880569,-0.020237797798472457
-0.02295284139108844,-0.024418050088570453,-0.01954525760083925
-0.020115188817726448,-0.0183772044692887,-0.022882064513396472
-0.017617678167880513,-0.016282916476484388,-0.026401408831588924
-0.015315037671825849,-0.01504161446064245,-0.027368594601284713
-0.01368609991914127,-0.009957727343135048,-0.027350293748895638
-0.011178273780387826,-0.0030881055863574147,-0.027195170332561247
-0.007994522093213163,0.0037934166812192416,-0.024934381144703366
-0.0068678050411108416,0.009003924787975848,-0.020830742869293317
-0.00540989140063175,0.011228325092815794,-0.0215636428038124
-8.258260919546956e-05,0.01594387140357867,-0.029287861252669245
0.0033818114388850518,0.028849941372754984,-0.03534652205416933
1.5585501778048183e-06,0.03926658973796293,-0.035931108868680894
-0.0073753390097408555,0.0347858112945687,-0.037908157537458465
-0.011865357919305097,0.0209038862521993,-0.043135391024407
-0.014705363355460577,0.009715427040646318,-0.05271066402201541
-0.01721296939649619,0.005965870514046401,-0.06015922917868011
-0.02008752380788792,0.007319724318222143,-0.06114196730777621
-0.023947695808601566,0.009976502042263746,-0.058235709730070084
-0.027728172426577657,0.008319674634549301,-0.05257419616100378
-0.02947635766759049,0.0021619978269882267,-0.043714462663047016
-0.030243767469073646,-0.0041069511098612566,-0.03052279498660937
-0.030894178053131327,-0.00921918672247557,-0.015467583580175415
-0.030280103601398878,-0.013051743735559285,-0.004198298029223224
-0.028753116566804238,-0.01789344059943687,0.00023251551795056002
-0.027147301807417534,-0.025145665858872235,-0.010922700312221423
-0.02567527008068282,-0.0260261440416798,-0.03337201997055672
-0.022888159946887754,-0.016986614355118945,-0.049262685934081674
-0.021157558876438998,-0.015612766219419427,-0.04626223380910233
-0.020211880837450735,-0.020201148799969815,-0.028206348360981792
-0.019942443032050505,-0.02085704545606859,-0.010620400644256733
-0.021126068531884812,-0.015829386029508896,0.0012901580248581013
-0.024038237825152464,-0.011145122698508203,0.0060074348766647745
-0.028108912374591455,-0.007501154868805315,0.007061886208248325
-0.031420422601513565,-0.001265003902517492,0.0087214993982343
-0.03218514393665828,0.007575848030683119,0.014375003956956789
-0.031055100407684222,0.016415231584687717,0.016116679034894332
-0.03059103255509399,0.021318268409231678,0.0058702125897980295
-0.030983119359007105,0.019625324057415128,-0.014341359928948805
-0.030581952159991488,0.012679937754001003,-0.03274253322160803
-0.03014392132172361,0.007644291144970339,-0.038947244320297614
-0.028628244763240218,0.005159710781299509,-0.033375130442436785
-0.027537282221601345,0.005060867351858178,-0.02382609454798512
-0.025988187189796008,0.0063847155615803786,-0.018456583347870037
-0.0249922632065136,0.008340714884980116,-0.020086119548068382
-0.024221879357355647,0.00895145240065176,-0.025564990210114047
-0.02478769420122262,0.008166203770088032,-0.029764561986667104
-0.026443120077601634,0.006319908607110847,-0.031635678169550374
-0.026163166694459505,0.003947305685869651,-0.0337732708430849
-0.023933516786200926,0.0031800755095900968,-0.03703944094013423
-0.022882004486746155,0.002678092187125003,-0.040975690353661776
-0.023417393094860017,0.0015104703834367683,-0.04349805021774955
-0.023790160412318073,-0.00035271045817353297,-0.04211700797895901
-0.024021130229812115,0.0004859770683651732,-0.03910326267941855
-0.02524064439057838,-0.0006490934651992575,-0.04110801819479093
-0.026421072107041255,-0.005516525106941117,-0.045137501729186624
-0.027039404812967405,-0.009882778613246046,-0.04401377373142168
-0.028977050533285365,-0.013056074749329127,-0.03850979919661768
-0.030608884117100388,-0.016037940440583043,-0.03341897900099866
-0.030550720111932606,-0.01945750591403339,-0.028685990400845185
-0.029512419132515788,-0.022603748220717534,-0.02367249908274971
-0.029322689442778938,-0.022164142137626186,-0.018070331861963496
-0.030470375349977985,-0.01517059536126908,-0.014166539585858118
-0.03070048478548415,-0.005074962245998904,-0.01114755286835134
-0.03080023088841699,0.0018636319509823807,-0.010817182555911131
-0.031054358260007575,0.005519120804819977,-0.011355354217812419
-0.029743467166554183,0.010883248251047917,-0.012220803000673186
-0.02697614581848029,0.013760125511907972,-0.016884971046238206
-0.02486056837369688,0.013977652088215109,-0.025031469704117626
-0.02336191028007306,0.014938171261746902,-0.0310180512315128
-0.020396681065903977,0.01895710374810733,-0.031184979889076203
-0.017703780031297356,0.021756603018729948,-0.026363590222899802
-0.015885891116340645,0.02016255348280538,-0.0239389410126023
-0.013757634405919816,0.016344767573173158,-0.024418326574959792
-0.010376737009210046,0.011822758096968755,-0.023670449081691913
-0.00807133073976729,0.003033796019735746,-0.021836658561369404
-0.008710888323548716,-0.008605848051956855,-0.02055983350146562
-0.011853344403789379,-0.014403063687495887,-0.017319038306595758
-0.01528058601252269,-0.012107893780921586,-0.014304913747764658
-0.017812688383855857,-0.008638839062768966,-0.014242149518395308
-0.019783601601375267,-0.008717658602108713,-0.01761048406478949
-0.021221727365627885,-0.011227461982343812,-0.023247006538440473
-0.01947330565599259,-0.013431103980110493,-0.03213160380255431
-0.01778996011125855,-0.016966181647148915,-0.04148477455601096
-0.01897032962006051,-0.024288428903673775,-0.04415712464833632
-0.021526848286157474,-0.02953859257104341,-0.039141596062108874
-0.02401839810772799,-0.03052251850022003,-0.0330151742673479
-0.026314570277463645,-0.030896357202436775,-0.032615505915600806
-0.027076965125161223,-0.028073838620912284,-0.035556498914957047
-0.027261959985480644,-0.021004483642173,-0.03358687536092475
-0.027839900212711655,-0.01448815510229906,-0.02746696372923907
-0.028455502615543082,-0.012958357729075942,-0.02135255272150971
-0.028073915018467233,-0.01589341991348192,-0.010935925274679903
-0.027560932721826248,-0.015167941455729306,-0.0005391324293668731
-0.026614699891069904,-0.007975039807206485,-0.0006601093787139689
-0.02499011498002801,-0.0013212788871896919,-0.010532822670938913
-0.024719181965338066,-0.0031966644655767595,-0.01870160485850647
-0.025458537493250333,-0.0072307830123463646,-0.01933544444909785
-0.026446286938153207,-0.006987649612710811,-0.018291908418177627
-0.024810467948555015,-0.00527860674992553,-0.021691976144211367
-0.02185127232223749,-0.004051354153489228,-0.029055281629553065
-0.01964148395927623,0.0012568759757414227,-0.030692397558595985
-0.017096808733185753,0.014039541383681353,-0.021663910956704058
-0.015540759704890661,0.026763971618493088,-0.009401241186424159
-0.016687734387232922,0.03652488885563798,8.090918868219887e-05
-0.01984696791623719,0.047268560592783615,0.0012818603636333137
-0.021536437998292968,0.05428878648672253,-0.008118824553093873
-0.02300600135640707,0.05421051901066676,-0.019622362742666155
-0.022501837520394474,0.0475459783046972,-0.021239231500658207
-0.02058736208709888,0.03737151200766675,-0.015710305888205767
-0.02038727507169824,0.022821826860308647,-0.016785799743956886
-0.02182405660278164,0.0058814916883420665,-0.029822740543750115
-0.023352160496870056,-0.008532747415301856,-0.042251722334185615
-0.024090239094221033,-0.020951576516381465,-0.04894376979791559
-0.0245034862018656,-0.03538644887157716,-0.056453362049069256
-0.025152397938654758,-0.04971652742824517,-0.062180137319955975
-0.02522070826671552,-0.06172952271299437,-0.05703885108232498
-0.024075763576547615,-0.07051832653814927,-0.04222708230372518
-0.022833828552393243,-0.07655494118807837,-0.02637021680129692
-0.022672664272249676,-0.07474693120457232,-0.01577232796989847
-0.022807671484770253,-0.06080192906665616,-0.011059361895604525
-0.022116639229352586,-0.044655054807662964,-0.008805826837487984
-0.0204492753255181,-0.03422088411753066,-0.005735073500545695
-0.018549319065641612,-0.027333513571647927,0.000289422160903996
-0.016260783013422042,-0.01962747410289012,0.001867541641331627
-0.015342187907663174,-0.014900512724125292,-0.00874924717209069
-0.015634090232197195,-0.013744234820478596,-0.022984233510214835
-0.015474661267944612,-0.012309425073908642,-0.03017584458575584
-0.015298384823836386,-0.009652387234382331,-0.029382836146396585
-0.017726879377732985,-0.005774632882094011,-0.02518539440643508
-0.021311305317794904,-0.0027668786515278043,-0.022439100575866178
-0.024548013243474998,-0.0014162955039864755,-0.02068670255539473
-0.027448451874079183,0.0006927678555257444,-0.01532346141175367
-0.029580487534985878,0.0005325437086867169,-0.009312861948274076
-0.030202352718333714,-0.005171538305148715,-0.011732909115380608
-0.029517517759813927,-0.009859779311227612,-0.02639566082507372
-0.02890272662625648,-0.010930432836175896,-0.04054922828800045
-0.027878073524334468,-0.007435517545673065,-0.041580813558539376
-0.026083469492732547,0.001821236082832911,-0.03421781366341747
-0.024439708795398474,0.009405937817064114,-0.029026670745224692
-0.024138302251230925,0.008625612281321082,-0.029055259801680222
-0.025390758310095407,0.0018770779206533916,-0.03219060818082653
-0.02693454189284239,-0.0031494748782279203,-0.03404011295060627
-0.027372254407964647,-0.000646825924377481,-0.03323343480587937
-0.02709902219066862,0.013581195162259974,-0.030999843147583306
-0.02621852036099881,0.03376884706085548,-0.026423382223583758
-0.025110561182373203,0.04906113099423237,-0.02179322109441273
-0.025825658667599782,0.053098970965947956,-0.020986746676499024
-0.027320440494804643,0.051843078836100176,-0.021867163013666868
-0.02651898466865532,0.050290200306335464,-0.028540964194689877
-0.024750637749093585,0.04405431536724791,-0.03937489236705005
-0.023898088329588063,0.03331229163450189,-0.044045678805559874
-0.024545477572246455,0.022916394300409593,-0.042087704059667885
-0.024553548428229988,0.014814502719673328,-0.03620392453740351
-0.024564022169215605,0.004301371518522501,-0.026964000426232815
-0.025878640371956863,-0.014456966709985863,-0.02147984559996985
-0.0262525263678981,-0.040013936086324975,-0.024715138351893984
-0.02626561399665661,-0.06032018063706346,-0.03149273470626213
-0.026859304853132926,-0.06469093932537362,-0.033803626138251275
-0.02604147812235169,-0.05722320202039555,-0.03204399399692193
-0.022890157197252847,-0.049362181016476825,-0.03389450648683123
-0.020326031517470255,-0.04116094714845531,-0.04377287041279487
-0.020980794943170622,-0.030207458621589467,-0.05556417454499751
-0.023835700631025247,-0.02064043474092614,-0.05652414256474003
-0.026854775569518097,-0.01348093974229414,-0.04600658576237038
-0.02754425077000633,-0.007852845556044485,-0.03432300582062453
-0.026334068024880253,-0.001021436673909193,-0.024984778065118007
-0.02242669324914459,0.00647989645585767,-0.018149410607293248
-0.019609276932897046,0.013025962289248127,-0.01380332287226338
-0.02041019433818292,0.0171822448464809,-0.008480296855850611
-0.022024125428288244,0.018310185623704456,-0.0003063180429307977
-0.022138465283205733,0.017290434698225,0.009962143849406857
-0.023195076209958643,0.014921525689715054,0.015317615179810673
-0.025453342459513806,0.009810566552914679,0.00911444476514589
-0.02647001929290127,0.0034384165701339953,-0.0053251969802659005
-0.025827044737525284,-0.001608705474609451,-0.01815832729334943
-0.02452679291309323,-0.004329421699367231,-0.024189574105548672
-0.02361244332860224,-0.0070421369855466764,-0.02592184318928048
-0.024673978259670548,-0.006716617917845724,-0.026853611416299827
-0.027261688956059515,-0.002037007334365626,-0.025124585590674542
-0.027871137717738748,0.002775720986392116,-0.020078681700397283
-0.02616473284433596,0.0033886653909576125,-0.013945274076831993
-0.02443332050461322,0.0007809998123775586,-0.011695145985868294
-0.024652401407365687,-0.0015671237179049058,-0.015703739336458966
-0.02605092595331371,-0.0014669948313894565,-0.0229093184316298
-0.0271899643848883,-0.0006624161414947594,-0.02631251118145883
-0.02648733789101243,-0.001348926275568374,-0.02241709444206208
-0.02574793506937567,0.00018008924485002353,-0.014207733329385519
-0.025998289856943302,0.0058702244132291526,-0.00639519157630275
-0.026072022592416033,0.008083276043180376,-0.005377028173825238
-0.026574572984827682,0.006216458132257685,-0.01363682713417802
-0.02719065741985105,0.005343827069737017,-0.02665570173121523
-0.027279118512524292,0.007317584277188871,-0.03957928856834769
-0.02544556809880305,0.013389941159402952,-0.04558270666166209
-0.02210672028013505,0.01945258009072859,-0.046401535655604675
-0.018347998775425367,0.01992169018194545,-0.046406639739871025
-0.015277906641131267,0.014676821592729539,-0.04642633939511143
-0.013840559404343367,0.004660737886297284,-0.05005959974369034
-0.013575845514424145,-0.008281622285721824,-0.056331085943384096
-0.014705270587000996,-0.019776653061853722,-0.058184257795801386
-0.01611100378795527,-0.026559200705378316,-0.05363446689443663
-0.018877351976698264,-0.028332695364952087,-0.04352957694209181
-0.021526106138480827,-0.02699464857869316,-0.03026044214493595
-0.023362959836958908,-0.026377731046522968,-0.015863950466155075
-0.024977169232442975,-0.025367493435624056,0.0005657377641909989
-0.02574129575805273,-0.01634595355426427,0.011028921107936185
-0.025775803806027398,-8.298407294660137e-05,0.015262507076840848
-0.02563022280810401,0.012279041584406514,0.01620229522814043
-0.025495921363472007,0.016932533981162123,0.009369947292725556
-0.025251547413063236,0.016688049072399735,-0.0025263175302825402
-0.023097845769370906,0.013636828953167424,-0.011455588719400112
-0.020355317246867344,0.008595902727392968,-0.015761830582050607
-0.019620632883743383,0.003281053068349138,-0.02156390473828651
-0.019371193047845736,0.00017568187615779607,-0.028984208256588317
-0.018665055904421024,-0.00016185697404580424,-0.032997882954077795
-0.017978671166929416,-0.0011767715477617458,-0.033066058676922694
-0.01796593460312579,-0.006708050023007672,-0.02962424150609877
-0.018511103917262517,-0.01439698098693043,-0.02905069777625613
-0.019877195882145315,-0.022781376173952594,-0.03335910878377035
-0.021079353246022947,-0.030742317903786898,-0.033419801184209064
-0.022251966584008187,-0.03371823549969122,-0.029260994779178873
-0.023423137463396415,-0.029677026759600267,-0.022990732759353705
-0.02235432475572452,-0.02271427547384519,-0.016109082935145125
-0.02014550773310475,-0.018061109585687518,-0.012731309652735945
-0.018280925360159017,-0.017611768271308392,-0.015375666407635435
-0.01644657641008962,-0.019952005459344946,-0.02215741915279068
-0.015789335520821624,-0.0232277325267205,-0.027008738470613025
-0.01624318610993214,-0.02548284101067111,-0.02531746395106893
-0.01610252002137713,-0.02148784915334545,-0.020172148651909083
-0.01775895361788571,-0.006932270025572507,-0.018105933122569695
-0.02121756369888317,0.011519047802721616,-0.02305274028913118
-0.023563736249343492,0.018584059944259934,-0.03263387407059781
-0.02513712206564378,0.013465116353472695,-0.03641750299721025
-0.027371905161999166,0.005881088782189181,-0.03407635449548252
-0.027743262762669474,0.00021582670228781353,-0.028807948183384724
-0.028179849323350936,-0.0034954334751091665,-0.023477186914533377
-0.031250998290488496,-0.0028729739369737217,-0.02358850724704098
-0.03392574217286892,-0.0007352326747422921,-0.02521785609133076
-0.03298157753306441,-0.0035736402423935942,-0.02228931407444179
-0.03071720857406035,-0.007259298854478402,-0.02149147985619493
-0.03062270479858853,-0.0010468144182596006,-0.027359637897461653
-0.03197333717253059,0.01659056761127431,-0.03410146018723026
-0.0310423165501561,0.03906798883690499,-0.03810083944699727
-0.02991646215377841,0.051519571570679545,-0.04028200783068314
-0.03027154343726579,0.05074733417131938,-0.042415402276674286
-0.031027651857584715,0.044306652853265405,-0.04116623313166201
-0.032537463994231075,0.033619282476138324,-0.03643683885456994
-0.033318439818685874,0.015504396287724376,-0.03224313695682213
-0.031286974262911826,-0.010214130270469468,-0.030774732294958085
-0.02868321280402597,-0.03783899956033565,-0.03122195994365029
-0.028077147362637334,-0.05837250137119554,-0.029806396923959255
-0.03016420487256255,-0.06596645107492805,-0.026244993932778016
-0.032527095754630864,-0.06630358984693885,-0.022038264432922006
-0.03498794831102714,-0.06668119021924213,-0.01784004234650638
-0.036001896660309285,-0.06442458106903359,-0.013107176528137643
-0.0344885847880505,-0.05767305628978647,-0.011610063666012138
-0.0333767784468364,-0.048303154471796006,-0.017088304957724176
-0.03302460754639469,-0.036676294257631525,-0.0207002813112922
-0.032024170650402084,-0.023108870664145797,-0.01785458152880892
-0.02886216861952562,-0.013137720088707283,-0.014714822100359015
-0.02500216942280531,-0.006280138677539071,-0.01371176949760411
-0.021048299458925612,0.0020497186596912798,-0.013313586350705009
-0.01936051376105752,0.007191989880084293,-0.009127053090196569
-0.02113982009177562,0.005193575816520024,-0.0008906711741474282
-0.022835916752228513,-0.0025569775061740074,0.004325730515120085
-0.02211957507824991,-0.01047170371748507,0.0021485523120645666
-0.0177346337295603,-0.010732233931776136,-0.003592127313822857
-0.01121196874009911,-0.0042516035136941355,-0.008572037586418446
-0.0041781941035878845,0.0008488315756949305,-0.012337726730038412
-0.0008522760026608012,-0.001163791012004367,-0.01760482155077625
-0.0009501276849732676,-0.004430243279784918,-0.02446610596962273
-0.0028714398467855062,0.0023942056941450574,-0.03125681905657984
-0.005596857135969913,0.0116113778858562,-0.037944231735309586
-0.009023051461554132,0.015415400412166491,-0.04621372863766737
-0.011518912288011052,0.015846320820855908,-0.057291352277388796
-0.013191580364946276,0.017350548660033382,-0.06977521115913987
-0.014789165106776636,0.019226687072659843,-0.08035053178900853
-0.016906997188925743,0.017910702808876522,-0.08197172428481281
-0.019678971511893906,0.014392968296306208,-0.07282288424903527
-0.021895037207286805,0.01073105613613734,-0.057039109378820285
-0.022724592781742103,0.008951902600529138,-0.04127954161958769
-0.024322576791746542,0.007682816431042738,-0.029668850402231328
-0.02739965566433966,0.005301092642184813,-0.02514314473955892
-0.028885922802146524,0.003905245648638811,-0.019781680748565122
-0.02913913704105653,0.005425895778898848,-0.004166785856796196
-0.0301757736451691,0.007644806828466244,0.007989928235474508
-0.030794482881901786,0.00974074373516487,0.00962753256317228
-0.03139430555165745,0.008454449925920926,0.001100161512113118
-0.031641404348192737,0.0011987094694632106,-0.008607377822045237
-0.029935197744634934,-0.007256320714077447,-0.012896998669020832
-0.028135584216215648,-0.012522074939624872,-0.01123046695283847
-0.028125032258685678,-0.011682778676913586,-0.006815859705966432
-0.028123127776780166,-0.00034947368021676084,-0.0022729097963747336
-0.028428370569599792,0.014536928574671037,-0.001119816147365782
-0.02909766226366628,0.02476001282047946,-0.011729917787306476
-0.028440032110665925,0.03051339263038244,-0.028472715712268837
-0.02634957490954548,0.030057219191803597,-0.037771009374409914
-0.021785954231745563,0.022702524802298285,-0.03514850322972052
-0.019056104065384716,0.01258733118447708,-0.032028860005084425
-0.0197948538698256,-0.0036680576158687472,-0.03491245661280118
-0.020151803255430423,-0.023479524315916933,-0.040299215470440686
-0.019754432287300006,-0.032606883905828,-0.04114771218155511
-0.019925659216823988,-0.031206465791910887,-0.03235667463741265
-0.02083930667140521,-0.028496806407929398,-0.01891734791570343
-0.02160475924029015,-0.02438638694002293,-0.00493736069984152
-0.021829973775311373,-0.020538378521450795,0.008209338375309017
-0.02168707942473702,-0.019761066141654737,0.016913667423068546
-0.02166164449590724,-0.019671431800816208,0.01782744402589742
-0.021049181668786332,-0.015476056432817131,0.010773181202239357
-0.020666029740823433,-0.0017259110336453887,0.003294689349786495
-0.021306084818206728,0.013363713151193224,-0.0017818831565818982
-0.02153184868802782,0.021044970708317123,-0.005377346951718209
-0.023611040887772106,0.0206392869586125,-0.014589945749321487
-0.025950850613298826,0.013866013432561886,-0.027852556740981527
-0.02662050974322483,0.0048891297410591505,-0.03719732194440439
-0.02660022619238589,-0.0013944732017989736,-0.0383549886464607
-0.02683701313799247,-0.004151893335802015,-0.03563417703844607
-0.02684983701328747,-0.008735010851523839,-0.03663632378447801
-0.02604462133604102,-0.017265248970943503,-0.042650848627090454
-0.024515375116607174,-0.02418378608126659,-0.04891938442597166
-0.02320888961548917,-0.023599735868629068,-0.05104787851450965
-0.02357602716074325,-0.01615515793673694,-0.04777283902512863
-0.024276778276544064,-0.007491192718589446,-0.040347415051655844
-0.023847995180403814,-0.00252551967605541,-0.03641928196884692
-0.02171628329961095,-0.003661563141577062,-0.04087252455065027
-0.020759707695106044,-0.005494259767147014,-0.04661554339691065
-0.023014807084109634,-0.00545959483133629,-0.04763696051668376
-0.02596641752461437,-0.00682508743921062,-0.044165975850773975
-0.026580319172353484,-0.008133000847010408,-0.041052033338928595
-0.02548851443862077,-0.007002949132584035,-0.039484741137130186
-0.02603892244223971,-0.002173999291699147,-0.03754735735128634
-0.027827132726088166,0.002286262088091462,-0.03272049798397347
-0.028690998078673147,0.0016329236132150982,-0.029483997423085384
-0.028880520403617993,-0.002802087010422838,-0.030155686545185745
-0.028451082471292466,-0.004167413408140419,-0.0271430271823192
-0.02837551619450096,0.0008581652082284563,-0.016386555216740817
-0.027713720555766486,0.0053896283134236,-0.012666529073612764
-0.024618229872430675,0.003569832642824622,-0.01572478504385799
-0.02274158578075003,6.262960283720531e-05,-0.013787330317427404
-0.023599930500495248,-0.0009660399200583925,-0.009759201930137351
-0.024036382455960847,-0.002632760242704535,-0.009705258889880497
-0.023566353775095195,-0.008155282557709143,-0.012365354450594168
-0.021568435840890743,-0.01472607436880935,-0.015082352547324263
-0.019680483092088252,-0.01762585816322826,-0.01920416070788633
-0.01832738780649379,-0.016322357623721473,-0.0269226457021432
-0.01880881427496206,-0.013169879821361974,-0.03632418156485073
-0.02094404771924019,-0.012501348464866169,-0.04179649840807542
-0.023222026356961578,-0.017832580851973034,-0.041507697460474446
-0.025940431441995315,-0.025007922886288725,-0.039119440771173686
-0.027602873160503805,-0.028812561140512116,-0.035526103602023795
-0.0273532496066764,-0.020680487068602815,-0.032391057175118476
-0.02736554051807616,0.006339622814266477,-0.030727122066309676
-0.0273038494924549,0.04509316204348579,-0.019920711565646343
-0.02680779834918212,0.07513773743994534,-0.004635583536582999
-0.02576439692347776,0.0845044560264796,-0.003029792651432217
-0.02450229112582747,0.07912715955171734,-0.014974297300796025
-0.02355002834519837,0.06633254088228568,-0.026926520149572752
-0.024964996555354446,0.049298498197458684,-0.030364413760253228
-0.026607740437611938,0.028562984880409203,-0.02772224797809031
-0.02658190715010278,0.010043733709608205,-0.027915868486161344
-0.024985474738059565,-0.004055203135067131,-0.031178515200736
-0.02328125628991984,-0.018402553905616514,-0.02906943700509146
-0.021207337340456434,-0.036007790185976774,-0.020029372535645962
-0.021784509954159148,-0.06130924157332629,-0.014446136447077151
-0.023849615899962373,-0.09088324441108853,-0.020633744497899897
-0.024339726223843172,-0.10758286953205243,-0.029999686375958845
-0.02427468825771939,-0.10425660002510995,-0.02932229108409956
-0.024004802980925888,-0.08330463606398553,-0.0194195490621496
-0.024167291485355236,-0.05995412720949389,-0.014035547792445868
-0.023962737031979486,-0.04572494071908295,-0.020911020328640006
-0.022035903384676203,-0.03926433782908134,-0.033160726161440834
-0.019792594684986398,-0.03420603752601892,-0.04032170181744732
-0.018123353584087454,-0.027081950975116342,-0.03655010732472874
-0.017624322936171666,-0.02034137651207857,-0.028558482881635427
-0.019184231859981082,-0.016798896467662416,-0.023353128199232742
-0.022490930859930813,-0.011019470548490062,-0.017365606254315935
-0.024857754397089593,-0.001223979097630945,-0.004204219294479117
-0.0246771342062857,0.0053559097068500705,0.013722884432354476
-0.02504206531739328,0.0079928477134672,0.0253817252087174
-0.025515886591165327,0.009147887794824783,0.02730881533352658
-0.025361747248098254,0.008850527592585422,0.019949269699282013
-0.024400153051828966,0.010012165148509666,0.0015426247728100861
-0.02295792910445016,0.0122962201203336,-0.022431564502767287
-0.022920976334717125,0.011578614248719532,-0.037571553548332304
-0.02496364504622761,0.008872819307725877,-0.03894962719641626
-0.027475796741782688,0.008473203706671484,-0.0322769810736645
-0.02881042382796295,0.010912710422417149,-0.02467991907906253
-0.028545349778141826,0.016244508515228517,-0.020142042558290996
-0.028090120395063423,0.022168685973156244,-0.019021117623196915
-0.02877683800761588,0.025090628696489148,-0.021352616386138834
-0.02870873868232593,0.028253802156541497,-0.023906441128929146
-0.028002301405649632,0.03461998130660504,-0.027490461434354074
-0.02709950967982877,0.04153037298237905,-0.03182333239237778
-0.02598269929876551,0.048222824261756614,-0.039883580029709265
-0.02334476994292345,0.05037053415435366,-0.05055578003521077
-0.0198688776436029,0.04354118209448643,-0.060463815316325054
-0.018765864297165535,0.031772000511409715,-0.06435036630136892
-0.01848535794124473,0.018067077689920552,-0.062260070990305394
-0.017215828847838566,0.0023755058009555796,-0.058012021327158436
-0.01609128048585262,-0.01423087996954564,-0.05226985740591772
-0.016247060557361692,-0.029855535103706643,-0.044722037273459136
-0.016841633623698726,-0.038386864616768435,-0.03465603367658332
-0.01652440732868854,-0.038035712350392714,-0.02041966945398599
-0.016913250874495134,-0.03498504156596027,-0.008363084816664923
-0.01862649151007645,-0.03088462835876271,-0.008211033673433121
-0.021254847524687648,-0.02586283881100826,-0.014608860510634258
-0.02261046029161662,-0.028899408789584413,-0.016510075511178002
-0.02239883178845048,-0.035533746995497495,-0.013417096852208488
-0.02335174758627545,-0.03569582258933224,-0.012324242561589926
-0.025316428946098313,-0.029938270017737523,-0.01514792165835388
-0.02547911208239384,-0.02477683847246226,-0.018216616808786057
-0.024054652385530062,-0.024546938220737502,-0.020757497622980736
-0.022867230654810555,-0.025926468879333697,-0.021754012777819298
-0.023549553588964045,-0.0250288394454401,-0.022375344997271895
-0.025244151402148418,-0.01974021506612189,-0.02464420504111331
-0.02649795715115033,-0.011866450222441927,-0.02480231341905892
-0.025947922040359117,-0.004884917416347889,-0.02169845174648799
-0.02568229137978051,-0.0003371033017174341,-0.01776847057044506
-0.02496766137483064,0.0011516414133438957,-0.01694857382972259
-0.02377561577304732,9.311781568044353e-06,-0.016882668205653317
-0.025013740014401264,-0.0008512142244399001,-0.016434118151664734
-0.026645997422747314,0.0013518814512281097,-0.018203945728600956
-0.02736127316893544,0.004540881491266191,-0.021865889721084386
-0.028026193831465207,0.00660945715935668,-0.02116240830218885
-0.02739159026532434,0.008297370186483022,-0.014597771041735541
-0.026126368538825773,0.007211367574200267,-0.00827433632366592
-0.02547445910749957,0.0043075815483462065,-0.008014269042178057
-0.024870303604984656,0.0027546341243578354,-0.013138576832716353
-0.025327222829218954,0.0026604757294990122,-0.020661460439441726
-0.024657267204020172,0.002815712150550098,-0.029458291464834474
-0.02280199623783119,0.002401784968242282,-0.04094148243893869
-0.02215312451880891,0.003338494252602686,-0.047172528866212815
-0.021471882064361125,0.004669336249207845,-0.04231726779835299
-0.019113753296551295,0.00661205285723554,-0.035703833418665454
-0.019558150597731583,0.009557808880344965,-0.03399166598683223
-0.022243897547014058,0.011329008884786163,-0.03737390215974301
-0.02366640546824783,0.01060631257132627,-0.041250652429880574
-0.023072689145919867,0.007472068773495266,-0.042562933231238276
-0.02197760477429256,0.004507163339440012,-0.041075600165640935
-0.022048292521503754,0.003541082151059527,-0.03750495670828968
-0.02243642484245356,0.007384436230495339,-0.03491084498818964
-0.02236713407910429,0.013187442164053209,-0.040604125388199463
-0.02191587736888323,0.013802747162117157,-0.05480026447912678
-0.022858643205836415,0.014467725122813135,-0.06681010563625023
-0.021874184312764555,0.02122536170645617,-0.06798669346608222
-0.0180708466359647,0.030855364457238466,-0.06051086893421598
-0.016617770597804338,0.034856821002904326,-0.05249077366897836
-0.018448929040459916,0.02817003769450821,-0.04307898780098185
-0.021294839825714007,0.016779536963440478,-0.029438135243253782
-0.02293598481628578,0.008555869499105029,-0.015193645594990812
-0.02202034738729708,0.005617716396955075,-0.004420510322233895
-0.021634408767567948,0.0037397835512820166,0.0016106970406326582
-0.021806814402225427,-0.005789363058283925,0.0035659911645780085
-0.020911333194817416,-0.025641302272561006,0.002908214355556993
-0.020598494302248582,-0.04451060885912739,-0.0027048345145885833
-0.02194260378018953,-0.056745571782812476,-0.012813936336897314
-0.022045978766982444,-0.05990911813569255,-0.022946076569496654
-0.021206556994002312,-0.05777441765530966,-0.030548020731657743
-0.021321051463019103,-0.05672169572790153,-0.03506867869873531
-0.02359717655053828,-0.05208237053011544,-0.0347703171428293
-0.02511646380298771,-0.039676404412603006,-0.030001743652974255
-0.02604259498184547,-0.024491922886227258,-0.024224867956945673
-0.02751399551925715,-0.010899207154579926,-0.015349385648733005
-0.027794225388788618,0.0005326437531039119,-0.003318857352496707
-0.027404972570366226,0.008096139936242253,0.008987675755633973
-0.027363710614736192,0.010921382454398554,0.017980491975322366
-0.029088776500429958,0.014960555745346937,0.02382729326200206
-0.03026281774509698,0.023745433281874284,0.024900547941797413
-0.027909791242564097,0.03174877929268405,0.015465586329810321
-0.024015056624193676,0.03012590423168149,-0.0027523794869921403
-0.021550642486545257,0.021049450879218057,-0.017230668163392693
-0.020502931874943897,0.010611199286358897,-0.026372621505288407
-0.017827493138611317,0.001721806256682612,-0.0381078825739678
-0.013930586646893062,-0.0019678097942232853,-0.04823699782718904
-0.013994332221045624,0.0011344719723638264,-0.051402737881289795
-0.015305469787563197,0.010025160008808598,-0.048176236305153
-0.019738199625862762,0.023309879907174036,-0.034226668503833935
-0.02368124660279136,0.034025724744424224,-0.01389895987813361
-0.02606077578093391,0.03663436655187979,0.004882361281488556
-0.027768275685957633,0.03017132075910922,0.016826883438625373
-0.028786556867999025,0.01958040229510516,0.017870162992039695
-0.029745344363618642,0.01181438346975483,0.012612944374268409
-0.03238535646232776,0.009035188668349292,0.007134937277442077
-0.03592095890780911,0.013135117114870809,-0.0006562848966495949
-0.035961918911198154,0.018597091184346937,-0.015947711290209554
-0.032404594094259664,0.012275878361833747,-0.035043605748796836
-0.028856318749603815,-0.00863407058204757,-0.04549981895252131
-0.026227638954878785,-0.034898937883554026,-0.047412439016625285
-0.024618660972919315,-0.05984591189189814,-0.043546668166527525
-0.025353831006214023,-0.07816913421265781,-0.036409939639270306
-0.025503923097858205,-0.0825998795335181,-0.03007813575095497
-0.021813610146637075,-0.07539452781202272,-0.027003197828889824
-0.016032186977099627,-0.06488972576335073,-0.026010166038759053
-0.011612647540459875,-0.05633873661281541,-0.024883849619072862
-0.01034972501656739,-0.05136006438988261,-0.02478748865542002
-0.010035891136794817,-0.049493904953124,-0.028473936254158616
-0.0077221557148732245,-0.04535791231319308,-0.035986635339213535
-0.006915065114299068,-0.03452068631304428,-0.03922144605894573
-0.008656719728605822,-0.016622487237327732,-0.036223565984983
-0.010520138857827988,-0.003480056420812616,-0.03441726585151628
-0.009130211765295826,-0.0020956956632289803,-0.03439481224631891
-0.008713177521713078,-0.0035802329421130707,-0.030603292543673888
-0.01229682493431028,-0.0008448298558505485,-0.02562177542131394
-0.01805397914722562,-0.0035639714042190462,-0.02277400199091062
-0.022745281967218034,-0.01321244053542614,-0.019277274986961856
-0.025459770768065937,-0.022439402528107166,-0.01467203583160881
-0.0272500365099404,-0.027242949727224186,-0.013110295185470022
-0.02790125654428266,-0.026682477255235426,-0.018522574464441277
-0.029682412787224166,-0.022031576008885168,-0.029660379368579015
-0.03194002783857286,-0.016831299944897182,-0.03359647962497547
-0.03382432259968482,-0.01007720948109636,-0.02945722189906519
-0.03562054189387709,-0.0008459952027806139,-0.02281469824083615
-0.037764340959256515,0.00920958882488776,-0.0139495869007078
-0.038405465602409095,0.018045224351226352,-0.008434278242930304
-0.035410819691605866,0.024010700144572183,-0.009434421372134238
-0.03150241172988899,0.02743041295616422,-0.013327369742910378
-0.027584226700128056,0.02961070458695758,-0.016338502973667346
-0.02542761285440065,0.03107635347987525,-0.017165801182272844
-0.024941644369391724,0.029585504307760857,-0.016357626009266824
-0.02518206019885838,0.027411357223172672,-0.01708489617158193
-0.025420464226044714,0.025630082745919935,-0.02212758408859372
-0.026007310225395486,0.022109532437752932,-0.03025155092473142
-0.02660792051756289,0.017174994354718365,-0.03765349538298324
-0.026408330086269416,0.013624379789689556,-0.04200731200398877
-0.02665593638084829,0.013387851140578277,-0.043081632611574605
-0.027809448511106893,0.01825969957280904,-0.039595350244781
-0.027841841074405238,0.024875262170098722,-0.03506020220811479
-0.026905652703135274,0.030628150852862746,-0.034332893847022206
-0.025809791623032652,0.032487980206497014,-0.03278209987911396
-0.025138244382105768,0.029826114769093692,-0.026853604140342213
-0.02635544842632953,0.022015436115907505,-0.02154603680537548
-0.027562660761759616,0.010643732821336016,-0.022686854208586738
-0.029176244424888864,-0.0017651672123975004,-0.027610403776634485
-0.03171147545799613,-0.012724365660687909,-0.029525108402594924
-0.03402006041142158,-0.02061417580989655,-0.027372192562324926
-0.033748587156878784,-0.027239182600169443,-0.024888846382964402
-0.03184482193319127,-0.03280934106442146,-0.024206734451581724
-0.030525850888807327,-0.03377315078978427,-0.022604932382819243
-0.031159299396676943,-0.031405586923938245,-0.02046029294433538
-0.032555464713368565,-0.02837981992342975,-0.0216463377000764
-0.030954146495787427,-0.02414330083411187,-0.02480385228409432
-0.02926087108789943,-0.021336700228857808,-0.026173200240009464
-0.02741145908657927,-0.019210734535590746,-0.02280289845657535
-0.025747551262611523,-0.017406444385414943,-0.016926893295021728
-0.023485163183067925,-0.014038728295417968,-0.015981611795723438
-0.021828409444424324,-0.010803780241985805,-0.02293705620104447
-0.02201065217377618,-0.008533087566320319,-0.03321914846310392
-0.022907017410034314,-0.006036512331775157,-0.03935361746698618
-0.021894335077377036,-0.003194447117493837,-0.03933667539968155
-0.018038455891655758,-0.0014812524113949621,-0.03815236777882092
-0.013690542800759431,-0.0010383217841081205,-0.03834257950074971
-0.010827108781086281,-0.0002641187961671676,-0.04022179564344697
-0.00865241509018233,0.00305416619994503,-0.04158358933636919
-0.00840075699670706,0.007211120191641385,-0.037484052882064134
-0.009096319445234258,0.011681512660288718,-0.028498934625531547
-0.009681649316917174,0.012225511454744264,-0.016886693629203364
-0.012797430827049538,0.009617987416277174,-0.009112068255490158
-0.016263484212686308,0.005554906238103285,-0.012012557817797642
-0.016076342944870703,0.0010098232223754167,-0.019729008272406645
-0.013129006219969597,-0.0019116437215416227,-0.02162256532756146
-0.0123933796203346,0.0011529837138368748,-0.01733605495246593
-0.013587187822849955,0.008397170859097969,-0.014306624507298693
-0.014935511899238918,0.015427169273607433,-0.016754054740886204
-0.015913572497083806,0.02432283690723125,-0.02017740007431712
-0.016553383829887025,0.032055180781753734,-0.022094078303780407
-0.01923712443385739,0.02998304807988461,-0.026353345674579032
-0.02467361991875805,0.021995912902639247,-0.028704011128866114
-0.029428847483359277,0.01809258174034767,-0.02489286634954624
-0.030594328563893214,0.02046562804025598,-0.021076162738609128
-0.03192704753018916,0.025566343538230285,-0.021016938262619078
-0.0324504217132926,0.02476684130670037,-0.022963989977142774
-0.031089119147509336,0.016656889783916995,-0.024815724827931263
-0.029616277970490046,0.0032911971175053623,-0.024378336092922837
-0.029368102332227863,-0.01104044076782884,-0.019958251868956722
-0.03091460166615434,-0.024989918529172428,-0.015166747289185878
-0.03237712007830851,-0.04124995393794961,-0.01995000638999045
-0.031756375392433256,-0.05947805038886145,-0.03675132757052779
-0.02959817720693536,-0.07023151556495577,-0.05350150968297385
-0.027584606868913397,-0.06573249993380159,-0.05445901115308516
-0.02653543560882099,-0.05398596840677783,-0.04164070196566172
-0.026418465495225973,-0.04915543831884861,-0.02854912236216478
-0.027747761123464443,-0.05315396629157476,-0.024000100893317722
-0.028076419766875915,-0.05392455204855651,-0.02425241473247297
-0.026759635147755034,-0.042300795030314475,-0.024732718884479254
-0.027818186936201528,-0.025715160518302582,-0.020442597815417685
-0.030037084798095748,-0.01571618668094743,-0.012005575626972131
-0.029780578188365325,-0.011158428605995141,-0.0015894794387349975
-0.02667913940967992,-0.004584207090374548,0.01057234749168856
-0.02472811502229888,0.004949120011588093,0.013232742276159115
-0.024440365450573154,0.01075521231541643,-8.576509458180226e-05
-0.025431740141357295,0.009794709512789268,-0.013418066373560578
-0.02766154102573637,0.0075217658377368934,-0.014781260688323528
-0.028360045689623803,0.009070248779607937,-0.010265477612847462
-0.027512269298313186,0.0109149423224153,-0.008218735274567734
-0.02555488026700914,0.012007490113319363,-0.014223517609934788
-0.0236513078561984,0.01353666084469296,-0.02386974847468082
-0.02371928894717712,0.015096944480319507,-0.035408254916546866
-0.023422615413437597,0.014422485946852248,-0.04732361048809253
-0.022262101992964745,0.011388972779968753,-0.05609149957308546
-0.021431744244182482,0.00795889809523942,-0.057635614211903885
-0.021345389541238546,0.00835806076793233,-0.052674142352771014
-0.021635165467159823,0.01592417356732767,-0.04231513594277203
-0.021001244022045285,0.02632488394738175,-0.028839860533480532
-0.019636212527984753,0.03079398811678402,-0.01867830360424705
-0.01809278182918206,0.026714211344369687,-0.01606473779247608
-0.017029273294610903,0.021071420633234084,-0.01892320506158285
-0.016325979231623933,0.016762038285378367,-0.02429764936096035
-0.01631132727197837,0.01210853224620223,-0.024149294404196553
-0.017935773939825594,0.007628982984897448,-0.018916165572591126
-0.02084401057800278,0.00622746438239119,-0.02119043165293988
-0.02386618325544987,0.010688276233850047,-0.02916888115578331
-0.025270490368711762,0.015612828065059148,-0.035074517654720694
-0.024719864086364396,0.015854773664614186,-0.034789260098477826
-0.02334031705686357,0.012506900930020493,-0.03239754732931033
-0.02249231874884572,0.00833590547699714,-0.034806824260158464
-0.022621195967076346,0.005712075562769314,-0.03918430957128294
-0.022493579308502376,0.00707609342498472,-0.04120717858313583
-0.021264075257931836,0.009592882634024136,-0.04289081698516384
-0.02114021117449738,0.004508672191150254,-0.04700971476268023
-0.02175198824261315,-0.013510889402823523,-0.047215085942298174
-0.022340307623380795,-0.037392448575701565,-0.04063437881995924
-0.021125122657394968,-0.05398619396146387,-0.032661442673997954
-0.021092273527756333,-0.06022523302817717,-0.026867974156630225
-0.021118525182828307,-0.061850398196838796,-0.02330251118110027
-0.018034186723525636,-0.05923567368881777,-0.01967555726878345
-0.013502686670108233,-0.04883972360403277,-0.015348112356150523
-0.011094071851402987,-0.034410611988278106,-0.01229115150636062
-0.01357568908133544,-0.0181122450158,-0.015038324818306137
-0.018636894310475327,-0.0019901922314602416,-0.01974311271624174
-0.021021625798312016,0.009781128937902395,-0.017194237443618476
-0.020588204279192723,0.011020888450730126,-0.009197127837978769
-0.019748707927647047,0.00018874283114200807,-0.008269167665275745
-0.021435875169117935,-0.016773527022451162,-0.02045756446023006
-0.02293228499183897,-0.03153133002342656,-0.032644729799358174
-0.0224759951379383,-0.0407057159463875,-0.036629575333790854
-0.021640626073349267,-0.042614272388163954,-0.03267735883127898
-0.02163349199690856,-0.03749575262190774,-0.026753114070743322
-0.021733298126491718,-0.03292637120466679,-0.030010038244654424
-0.023337022867053747,-0.031174407922662795,-0.042375435441499576
-0.025813922547968104,-0.02528440745663829,-0.04961361992172897
-0.027678881451720372,-0.011425853699620347,-0.04337562859291211
-0.029098002414684743,0.005977072760288138,-0.03123039277852513
-0.029826596801285632,0.01972202881006524,-0.02623797809064854
-0.02974770904984325,0.026972535124514252,-0.03360421032994054
-0.02894074350479059,0.027322139430907555,-0.04040806015837006
-0.026979689209838398,0.024461804059683345,-0.03604968514991924
-0.02576730548753403,0.024456883693346754,-0.02391608177276794
-0.0263381443801336,0.026022064048447646,-0.008597676242061425
-0.027728534405468963,0.022024094505468383,0.003029632580364705
-0.027822905394714326,0.012492555470089428,0.00964998616836965
-0.026664532924769446,0.002400375251454534,0.009138870154856704
-0.026556477678241208,-0.0029998680020071333,0.0037145023270568345
-0.026639030693331733,0.0004059044442783488,-0.0009971124654839514
-0.02576454062364064,0.005912525466555962,-0.003995019596914062
-0.02364165811741259,0.0065182452999579255,-0.005714495273423381
-0.021190295228734612,0.007564380211988464,-0.005228833288128953
-0.01931885526573751,0.012067883290001191,-0.003630179435276659
-0.020394740204210393,0.016621906979708,-0.002949851250377833
-0.023587381292600185,0.020073142877663486,-0.006658211532339919
-0.024903154553612694,0.022439000531448983,-0.02139292519132141
-0.02421739736746531,0.019919079932151362,-0.041703377064550295
-0.02266237061121501,0.013119221875967924,-0.053592502808896825
-0.023078002413967624,0.008521062227373477,-0.05458536179503426
-0.02378008321102243,0.004531658305495512,-0.051161325245629996
