ch_0,ch_1,ch_2
-0.021821349946549162,-0.00239906762544706,-0.02510105332476087
-0.022166157577885315,-0.0045671063162444625,-0.025909293981385417
-0.023087195586413145,-0.006032465989846969,-0.024581568141002208
-0.023610044081578963,-0.00693794527251157,-0.022753121811547317
-0.023419617718900554,-0.007216201083792839,-0.021848833057447337
-0.02251262776553631,-0.005856765710632317,-0.021086323613417335
-0.021133841073606163,-0.003453189037827542,-0.021595096768578514
-0.020978288375772536,-0.0031872577892499976,-0.023566824893350713
-0.022055086446925998,-0.0038720399970770814,-0.023865000912337564
-0.023977434466360137,-0.0041401035559829324,-0.024107708668452688
-0.02505500742699951,-0.0036018316222907742,-0.02550783938204404
-0.024592955014668405,-0.0031450852020498132,-0.026874078685068525
-0.025007901058415882,-0.003523817440509447,-0.02727130413404666
-0.02493686588422861,-0.005482252163346857,-0.028214441044838168
-0.024177696104743518,-0.0071245863182411995,-0.029303742849151604
-0.02400196717644576,-0.0072911075221782085,-0.02840271554305218
-0.023371418137685396,-0.007113583251339151,-0.02744536141108256
-0.02264091199322138,-0.0074010731623275205,-0.027806547223008238
-0.023012556994217448,-0.007295511750271544,-0.02779521128104534
-0.024160790417226963,-0.00650245283395634,-0.027385263820178807
-0.02588849383755587,-0.006533715350087732,-0.025835626729531214
-0.028193011530674994,-0.006378875241352944,-0.023645276087336242
-0.027455182134872302,-0.004774160515808035,-0.02284611400682479
-0.023995475203264505,-0.003375360165591701,-0.02488298196112737
-0.022325333702610806,-0.0023729428448859835,-0.025450930479564704
-0.024037521143327467,-0.0016459731568829739,-0.026342317141825333
-0.02584361209301278,-0.001425961727363756,-0.028244510758668184
-0.026980696929967962,-0.0022880280994286295,-0.02761447467491962
-0.027883668735739775,-0.0025970077786041657,-0.026462676032679155
-0.027371908799977973,-0.0018509338133299025,-0.026719499146565795
-0.025799256036407314,-0.002405194891252904,-0.02705316546780523
-0.02509302066755481,-0.00347135801348486,-0.02563236193964258
-0.023923785192891955,-0.004648964477382833,-0.024249502530437894
-0.022470710973720998,-0.005462161880132044,-0.023379634512821212
-0.022326990801957436,-0.004736125902127242,-0.023196271285996772
-0.025020266548381187,-0.003159248763040523,-0.02294455589435529
-0.025432336769881658,-0.0024263067643914837,-0.022500989871332422
-0.023017586499918252,-0.0030170272111718077,-0.023757962480885908
-0.021920799554209225,-0.003155546892230632,-0.024195511286961846
-0.022315143723972142,-0.0036310470932221506,-0.023581764253322035
-0.020983043214073405,-0.003184253955623717,-0.02359635072934907
-0.02060774750134442,-0.0013737372910327394,-0.023073996999301016
-0.023369879272649996,-0.0008787264960119501,-0.022799804355599917
-0.025843281036941335,-0.0018030465298579657,-0.02349255191802513
-0.02542090805945918,-0.0018335899767407682,-0.0244525472226087
-0.024347638827748597,-0.00024306456225531292,-0.022305306629277766
-0.024322567696799524,0.0001667778377623108,-0.021958647266728804
-0.024019222109927796,-0.00014063859055113426,-0.025373161406605504
-0.023341952328337356,-0.0011730558071576525,-0.0273855166597059
-0.02306014903297182,-0.002910350531237782,-0.025550400096108206
-0.024057910195551813,-0.0035709117582882755,-0.024268856577691622
-0.02384834260737989,-0.002890958057832904,-0.02516828681109473
-0.022266991436481476,-0.003367240651641623,-0.02704385951801669
-0.022541362341144122,-0.004690302830567816,-0.02675604628166184
-0.022226004148251377,-0.005464517016662285,-0.027041631255997345
-0.022334355890052393,-0.005198109647608362,-0.02792839950416237
-0.02340333412576001,-0.004638912287191488,-0.02607082024042029
-0.02343265623494517,-0.0035838149869960034,-0.0237587282754248
-0.02309410228917841,-0.0024447840587527025,-0.024838574972818606
-0.021621966880047694,-0.001636644469726889,-0.027506932383403182
-0.01954076469701249,-0.0012123180113121634,-0.028352396839181893
-0.017357686374452896,0.00043468440935612307,-0.02769942511804402
-0.017120788470492698,0.0004728119051833346,-0.02496681008778978
-0.017095666407840326,-0.0007104173960215121,-0.022897271264810115
-0.018606519006425515,-0.0025581477984815137,-0.022597401766688563
-0.020835101167904213,-0.0037035474633739796,-0.024070977815426886
-0.02411019704595674,-0.003966687017964432,-0.025705250664032064
-0.025270024707424454,-0.0033961796361836605,-0.026257279387209564
-0.024193981516873464,-0.003503816969896434,-0.02661385587998666
-0.024035331080085598,-0.004796327630174346,-0.0269967731583165
-0.024551809474360198,-0.005111687642056495,-0.025892801204463467
-0.023141812562244013,-0.003579274789444753,-0.024090060833259486
-0.020930801838403568,-0.0034026957109745126,-0.023692738977842964
-0.021470645151566714,-0.004104156687390059,-0.023356080419034697
-0.022897882445249707,-0.0031050105917529436,-0.021188912796787918
-0.023828752091503702,-0.002857772187780938,-0.018942395399790257
-0.022880778487888165,-0.005059373052063165,-0.01941241316671949
-0.02136302282451652,-0.005203754881222267,-0.020326724552433006
-0.02187781319662463,-0.0028130602913734037,-0.019742003132705577
-0.023397922632284462,-0.0021134037524461746,-0.02019173371081706
-0.025239729438908398,-0.004503680884226924,-0.021027464754297398
-0.024304506951011717,-0.005922065156482859,-0.021585206923191436
-0.02204360134783201,-0.0045771157601848245,-0.02201662391598802
-0.021246109099593014,-0.0034036725082842167,-0.02166283957194537
-0.021541807655012235,-0.003292072051408468,-0.021735302652814426
-0.021650941562256776,-0.0034895008411695017,-0.022040920157451183
-0.0212455379369203,-0.003652716486612917,-0.022319958588923328
-0.02129470340150874,-0.003998574811703293,-0.023039805455482565
-0.02164220313716214,-0.004664653260988416,-0.023514747226727195
-0.022325262762024067,-0.004870859811489936,-0.022127211195765994
-0.02251459409308154,-0.004709609584097052,-0.02219720590801444
-0.02265490729769226,-0.005185353984415997,-0.024164542992366478
-0.02253435377497226,-0.006620333806495182,-0.02693116584850941
-0.022208114387467504,-0.006614960057049757,-0.027951286028837785
-0.022736028768122196,-0.005691518254025141,-0.027001562557416037
-0.023568281903862953,-0.00473154932478792,-0.025658800950623117
-0.024117316570482217,-0.004928249381919159,-0.02607442183943931
-0.024860510166035965,-0.006602996108995285,-0.02696222873055376
-0.025535029635648243,-0.006737333478668006,-0.02832303107425105
-0.025937069949577563,-0.004734412868856452,-0.02790192775137257
-0.025736475436133333,-0.0019041051473323023,-0.026288973458576947
-0.024591898181824945,-0.0018262112462252844,-0.02800623042276129
-0.023003009118838236,-0.0031788219985173782,-0.029900284062023275
-0.02139039133908227,-0.0027660194064083043,-0.028355902031762525
-0.022717422325513326,-0.001231330770679051,-0.02627828871482052
-0.025338862542412244,0.0003606517111620633,-0.025806572011788376
-0.026125477234018035,2.0009501611184533e-05,-0.02627457070047967
-0.024497077902196907,-0.001307660568272695,-0.025996008844231255
-0.023183709345175885,-0.0020957870674465084,-0.026334320864407346
-0.022647547666565515,-0.003295363512734184,-0.02762075928330887
-0.021730589651269838,-0.0035852410746883834,-0.029050526791252196
-0.021649433620041236,-0.003310169404358021,-0.027793319532065652
-0.02343252344871871,-0.0039234437281265855,-0.024564087652834132
-0.025774987079785205,-0.0047516191443719435,-0.02255378603877034
-0.02633680560393259,-0.0036701292174257105,-0.025315455786767416
-0.026993024221155792,-0.0038512685023306403,-0.02824747389240656
-0.026298879674868658,-0.004786007593793329,-0.02618772123241797
-0.024560340534662828,-0.002756926960501005,-0.020974404833395965
-0.02379582656431012,-0.0021752030079369433,-0.02002202563744504
-0.024331169697688892,-0.0037428530959005,-0.0222419694182463
-0.024456521714455448,-0.003407639042052324,-0.024962262614280917
-0.025347495466121472,-0.002254261744383257,-0.026907577193924226
-0.026438872737344354,-0.002723301577134407,-0.0267984505626373
-0.026235518816974945,-0.0056509452406316996,-0.026875648472923785
-0.025811941668507643,-0.007421585905831307,-0.025944784283638
-0.025910061594913714,-0.006854173534520669,-0.023159407646744512
-0.025243210984626785,-0.006277704869717127,-0.022467360395239666
-0.02514301559131127,-0.00650280162517447,-0.024899614800233394
-0.026579760742606595,-0.006075197234167717,-0.027068841518484987
-0.02735260386543814,-0.004877243100054329,-0.02650842725415714
-0.026239427825203165,-0.003496000545055722,-0.024501148800482042
-0.0245697647187626,-0.0031695883535576286,-0.024176413717214018
-0.024529430447728373,-0.003053728278246126,-0.02413330730632879
-0.026637249902705662,-0.0025000206278491532,-0.023018217689241283
-0.02724612204474397,-0.0002197899533484815,-0.02277457133459393
-0.026122081180801615,0.0003170638080973731,-0.024594910428277217
-0.024760513042565435,-0.0020665750071202638,-0.025860403184196912
-0.024494958779541776,-0.004389209152577678,-0.024277040211018175
-0.025297060346929356,-0.005534059255296597,-0.02267760646645911
-0.0259192365774652,-0.007116521373973228,-0.023545704607386142
-0.025754185116966255,-0.008097786121652462,-0.025111758077400737
-0.024778622901067138,-0.00733505112293642,-0.0245861810981296
-0.025003320843097754,-0.005602666533377487,-0.02435837268421892
-0.025622413886594586,-0.004522451490629464,-0.025339590138173662
-0.02435218630125746,-0.004343206910562003,-0.02551184661570005
-0.024571800167905167,-0.005783990673080552,-0.023681688617216423
-0.025691393602755852,-0.006924366971361451,-0.022512753275805153
-0.025447638108744286,-0.006827234301454155,-0.023647309717489406
-0.024612209017504938,-0.006174443115014583,-0.025431974790990353
-0.023348091417574324,-0.005472197244671406,-0.025599703803891316
-0.022856020223116502,-0.005035717549617402,-0.024541855964343995
-0.02298490289831534,-0.004508981874096207,-0.022513966541737318
-0.024182065317290835,-0.004430864464666229,-0.020723902707686648
-0.0251863275479991,-0.004013048965134658,-0.020555236915242858
-0.023645525288884528,-0.0027186708848603303,-0.02179984949179925
-0.02114934250130318,-0.0022069966689741705,-0.0232152142416453
-0.02098771983582992,-0.004187999365967698,-0.023346898160525598
-0.021915679099038243,-0.004439687018020777,-0.02418824442429468
-0.02101395875797607,-0.003162276470902725,-0.02451780892442912
-0.020539948309306055,-0.0027266735287412303,-0.023373622752842493
-0.022787044144934043,-0.0013818305433233036,-0.02256446714454796
-0.024663049771334045,-0.0008582988471061981,-0.021224794181762263
-0.02371875598328188,-0.0017676043171377387,-0.02156914160877932
-0.021875379388802685,-0.003125531975456397,-0.02317162579856813
-0.021524441763176583,-0.0035927450880990364,-0.022857690055388957
-0.022089137928560376,-0.002968371745737386,-0.02202980795118492
-0.022457817976828665,-0.0025598940283089178,-0.02274572034366429
-0.022345921024680138,-0.003472706339380238,-0.023663915271754377
-0.022184558474691585,-0.004437124061951181,-0.02444347228447441
-0.021019619452999905,-0.004855031420447631,-0.024976596250780858
-0.019432376575423405,-0.005010143468098249,-0.024924596800701693
-0.018288628780283034,-0.004348613856564043,-0.02692634370760061
-0.020011235392303206,-0.004317501861805795,-0.029082973924232647
-0.021732634195359424,-0.00486843009639415,-0.029061313398415223
-0.022105592506704852,-0.00430963018516195,-0.0289404415525496
-0.02265813236590475,-0.0028517047212517355,-0.029493661713786423
-0.023732251065666787,-0.0025889230528264306,-0.029403177904896438
-0.024332321117981337,-0.00285576220449002,-0.02846511961251963
-0.024554430638090707,-0.003377377879587584,-0.02804586802085396
-0.025374223696417175,-0.004519284630077891,-0.0264866557699861
-0.026988131139660254,-0.004086331500730012,-0.024689885322004557
-0.029349765100050718,-0.0030050691748328973,-0.025462746634730138
-0.03095749343628995,-0.0031611907616024837,-0.0266279330389807
-0.030211069315555505,-0.0056995181694219355,-0.02700763798202388
-0.028152982849860564,-0.006909103376528947,-0.02701494850043673
-0.02490071528882254,-0.007213830031105317,-0.02652472903719172
-0.022405714844353497,-0.007184049536590464,-0.025289837140007876
-0.02304768167959992,-0.006204380952112842,-0.0235737443290418
-0.02388453322055284,-0.0029660532163688913,-0.023567066818941385
-0.023364040316664614,-0.0013548607284974423,-0.02456425136188045
-0.022481097403215244,-0.0031448730624106247,-0.024342984033864923
-0.02138797390216496,-0.00399454665966914,-0.02299600964761339
-0.020874855181318708,-0.002860869471987826,-0.022115551473689266
-0.021055609977338463,-0.001849250224950083,-0.02321164356544614
-0.02210841739724856,-0.0026359466573921964,-0.023412363589159213
-0.022172433091327548,-0.003446800747042289,-0.02182638127123937
-0.021353625925257802,-0.0035279540497867856,-0.023114629584597424
-0.022326672478811815,-0.0028283093342906795,-0.0228956214414211
-0.022630840248893946,-0.002110660489051952,-0.020382507500471547
-0.022409587472793646,-0.0013860516219210695,-0.01973608959815465
-0.022963406081544235,-0.0007117361633390829,-0.02151024636987131
-0.023101301849237643,-0.0007799580430400965,-0.023316732040257193
-0.021577747247647494,-0.0021548762560996693,-0.023945804059621878
-0.01972694917640183,-0.0031748079436511034,-0.023098975361790508
-0.02068349567707628,-0.004639711733034346,-0.02214962114521768
-0.022279349650489166,-0.006381452294590417,-0.02302928078279365
-0.022430120225180872,-0.006412281436496414,-0.024032789951888844
-0.021407582607935183,-0.005428228178061545,-0.024028055122471415
-0.02072538700303994,-0.004063975211465731,-0.02372940070927143
-0.021259576897136867,-0.004166408871242311,-0.024273233066196553
-0.021658477635355666,-0.006541333732457133,-0.024353008484467864
-0.021820007532369345,-0.0056593526096548885,-0.024546256099711172
-0.024247752662631683,-0.0026583909402688732,-0.027710253561963327
-0.02567842420830857,-0.0015485998119402211,-0.029587032258859836
-0.024940485673141666,-0.0019744854853342986,-0.028672851840383373
-0.022483904103864916,-0.003242280399717856,-0.026855406758841127
-0.020871324522886425,-0.0038979578675935045,-0.026026717023341917
-0.02126343679265119,-0.0035262314668216277,-0.026179981432505883
-0.022849531887914054,-0.003127212949038949,-0.026065124984597787
-0.022440381144406274,-0.0028543092867039377,-0.025504194127279334
-0.020747329472214915,-0.003471691570666735,-0.025107088731601834
-0.02003673762374092,-0.0041037992559722625,-0.025544281015754677
-0.019528033590177074,-0.004343628461356275,-0.0245039482251741
-0.021239857233013026,-0.002273176278322353,-0.022551575966645032
-0.024730288714636117,-0.0018873054159485037,-0.023286886062123813
-0.026369982151663862,-0.0033783019262045855,-0.021988036678521894
-0.02664438034116756,-0.0047659982556069735,-0.02229798337793909
-0.02736282658588607,-0.004677468496083748,-0.023488924853154458
-0.028198059226269834,-0.005526729182747658,-0.022388152501662262
-0.028663627745117992,-0.005210750259720953,-0.021077763449284248
-0.027242231226409785,-0.004446781986189308,-0.02195019078499172
-0.02582878732937388,-0.00392919673686265,-0.02373480674577877
-0.025788129278225824,-0.004207193342153914,-0.023500162569689564
-0.025729395929374732,-0.005367923222365789,-0.022637072106590495
-0.025682396881165914,-0.00530626721229055,-0.02314635094080586
-0.02539468914619647,-0.004358318619779311,-0.024467699404340237
-0.02457181290083099,-0.0034101165056199534,-0.025144496248685755
-0.025171253582811914,-0.0028647455110331066,-0.024671397113706917
-0.025839752197498456,-0.0038018133636796847,-0.02367325942032039
-0.025480072508798912,-0.005503766715264646,-0.023808885089238174
-0.024084711185423657,-0.006050687261449639,-0.02460301766404882
-0.023506012439611368,-0.005155414328328334,-0.02428595871606376
-0.024340039090020582,-0.0036906189961882774,-0.024358907467103563
-0.023667609639232978,-0.0032366110644943547,-0.024670473067089915
-0.02265671173518058,-0.0046340874177985825,-0.025717265089042485
-0.022390140657080337,-0.005353152118914295,-0.02609070907055866
-0.022772168449591845,-0.0038535945350304246,-0.024345799829461612
-0.022746169634046964,-0.0029511415959859733,-0.0224236719077453
-0.023069123926688917,-0.002843172978828079,-0.02144491190847475
-0.023906579372123815,-0.003309416342744953,-0.022205222194315866
-0.024326594939338975,-0.004475209152587922,-0.023939954189700074
-0.022715123122907244,-0.004557275588012999,-0.025711313355714083
-0.02432574183330871,-0.005039186362409964,-0.026598039767122827
-0.026839345082407817,-0.006616792688873829,-0.025755765818757936
-0.025411143724340945,-0.0066122056523454376,-0.025476656446699053
-0.023112948838388547,-0.005663368938257918,-0.02601359119580593
-0.022191457901499234,-0.004784156772075221,-0.026149635232286528
-0.022573003661818802,-0.004207503479847219,-0.02616954589029774
-0.021823088900418952,-0.004370748229121091,-0.026428337150719017
-0.0207280845643254,-0.004543243449006695,-0.025930277843144722
-0.020829711502301507,-0.003697243528222316,-0.024740176741033792
-0.021242814909783192,-0.0021961116090096766,-0.024595685317763127
-0.02131598193955142,-0.001833710939536104,-0.02453463093843311
-0.021936846678727306,-0.0024780299554549856,-0.024657150788698345
-0.022658352463622577,-0.0028418830879672896,-0.024009335902519524
-0.023831076759961434,-0.002555376795498887,-0.024552824470447376
-0.023714264898444526,-0.003186158664902905,-0.02738176772254519
-0.022957146939006634,-0.0052847594815830234,-0.027046335162594914
-0.022630803869105875,-0.005184453129913891,-0.0252986737905303
-0.022031988919479772,-0.004311960765335243,-0.025484312573098578
-0.021895333702559583,-0.004781019470101455,-0.026612668079906143
-0.021987545551382937,-0.005201214662520215,-0.027357171347830445
-0.021889887648285367,-0.0036699764223158127,-0.025281397029175423
-0.02170814696000889,-0.0017464188886151533,-0.022492506104754284
-0.02190077429986559,-0.000546200340068026,-0.022193873519427143
-0.02226075594080612,-0.00047983820650188136,-0.023140219127526507
-0.023513417545473203,-0.0004960857609148661,-0.023185957616078667
-0.023187336410046555,-0.0008329112120009086,-0.020744661014759913
-0.021430456399684772,-0.0029071738936181646,-0.019983601305284537
-0.019978328055003658,-0.004874234491580864,-0.020274208509363234
-0.02021744876401499,-0.00598165979681653,-0.020035407942486927
-0.02166433841921389,-0.004833832917938707,-0.020526184016489424
-0.022321886717691086,-0.00390431159758009,-0.021426169041660614
-0.02152115666831378,-0.00343949113812414,-0.022124779206933454
-0.021473282686201856,-0.003751826170628192,-0.022081872884882614
-0.021285557522787713,-0.004507034191192361,-0.021821140762767754
-0.021502641175175086,-0.004432756213645916,-0.02234587009297684
-0.023119990146369673,-0.003974066203227267,-0.02254371611343231
-0.02379420038778335,-0.00514708654009155,-0.022359768991009332
-0.02312553988303989,-0.006695525826216908,-0.02303760265931487
-0.022061334675527178,-0.006249309080885723,-0.023937795049278066
-0.02265871808049269,-0.0033796686693676747,-0.02484050673956517
-0.02301965287188068,-0.0017804194385462324,-0.02536287865950726
-0.023132215574150905,-0.0011936037935811328,-0.027637090170173906
-0.02169565050280653,-0.0011192253168701427,-0.027294528990751132
-0.02079255682474468,-0.0012240814157848945,-0.027213292923988774
-0.021830666810274124,-0.002091970145556843,-0.027269092242931947
-0.022844162231194787,-0.0029462883048836375,-0.025771216314751655
-0.022489028197014704,-0.0023960033104231115,-0.02493509600753896
-0.021924950488028117,-0.0012702820413323934,-0.02500289883755613
-0.02299208972544875,-0.001043167458192329,-0.025016104700625874
-0.025648418159107678,-0.001689565351625788,-0.02475539076840505
-0.02744673656707164,-0.0023732445697532967,-0.025633051336626522
-0.026207955670543015,-0.004023178462375654,-0.026291856556781568
-0.024080938601400703,-0.004825968971999828,-0.02700044569792226
-0.022977328626438975,-0.00490900265504024,-0.028322234356892295
-0.02277175008202903,-0.005594241883954965,-0.027073137971456163
-0.025309731427114457,-0.006041533652023645,-0.024300128643517382
-0.026476322091184556,-0.004755778718390502,-0.022883727069711313
-0.025622603061492555,-0.0034308063732169103,-0.024158565793186426
-0.025113480660365894,-0.0033765747957659187,-0.02558732194302138
-0.02564937312854454,-0.003789571564993821,-0.0255137692874996
-0.027284813768346794,-0.004401387741381768,-0.026001487640314735
-0.027817288355436176,-0.004463347977434751,-0.026830341084860265
-0.025580406145309098,-0.003237827968405327,-0.02702977872104384
-0.02440615753585007,-0.001958370603460935,-0.02701774428714998
-0.026053756300825626,-0.002372857352384017,-0.02660245263541583
-0.027279966161586344,-0.006252384991967119,-0.024965092961792834
-0.027531115847523324,-0.009549176866130438,-0.02333861993975006
-0.027282003429718316,-0.007641519914614037,-0.024425571609754115
-0.026309426175430417,-0.0038622779356956016,-0.025687784727779217
-0.026233892640448175,-0.0020324357592471642,-0.025674155040178448
-0.027225141820963472,-0.002144622385458206,-0.025439994715270586
-0.027690726710716262,-0.002287317784066545,-0.024155426217475906
-0.02740232230280526,-0.0010126819915967644,-0.02225954449386336
-0.02632627911225427,-0.00045058007458465,-0.021830621335539035
-0.025090403141803108,-0.0026053105557366507,-0.023717137082712725
-0.02600657899165526,-0.004214027740090387,-0.02611803574836813
-0.02793351814034395,-0.0027359776595403673,-0.026491838070796803
-0.02727294668147806,-0.0004253961378708482,-0.026343988793087192
-0.025241128241759725,-0.00012903028334676492,-0.028292241040617228
-0.023553966457257047,-0.001475608996770461,-0.030464749215752818
-0.02281276829307899,-0.002164461875509005,-0.028960066629224457
-0.022247742890613154,-0.0022366789380612317,-0.02638480691530276
-0.021935189579380676,-0.0025611748242226895,-0.025478095267317258
-0.023632002921658568,-0.002524249566704384,-0.02609261719044298
-0.025013760023284703,-0.0009943806844603387,-0.025860785171971656
-0.024460516215185635,-0.0003572875471036241,-0.02524252158764284
-0.02335000317543745,-0.0017877376876640483,-0.02674105780897662
-0.023454620531992987,-0.0033346987038385123,-0.027409363610786386
-0.022998003259999678,-0.0035709686017071363,-0.026251189410686493
-0.023073167540133,-0.00307051027448324,-0.025437291697016917
-0.02333918928343337,-0.0029662155611731578,-0.024962933821370825
-0.02360773396503646,-0.003466007001406979,-0.024975277483463287
-0.0246044437517412,-0.0028897188713017385,-0.0256378625635989
-0.023665386834181845,-0.003869991360261338,-0.026509947929298505
-0.021414498405647464,-0.004086392891622381,-0.024976339773274958
-0.022600605007028207,-0.002670726189535344,-0.02437379225739278
-0.02319498162250966,-0.001684924882283667,-0.02424088233965449
-0.022004831407684833,-0.0027556020540941972,-0.022552469090442173
-0.020430230506462976,-0.0032476309570483863,-0.02288975883857347
-0.020592648070305586,-0.001639071001591219,-0.0237501608353341
-0.021255093088257127,-0.0011850985401906655,-0.023330167095991783
-0.021867166651645675,-0.0036413873658602824,-0.022886148144607432
-0.02250463148811832,-0.005080849859950831,-0.022280217308434658
-0.022027070372132584,-0.003603680397645803,-0.021977273718221113
-0.020606299585779198,-0.0019173619421053445,-0.023497403162764385
-0.01984842492674943,-0.0015406619695568224,-0.023977119781193323
-0.020303019482525997,-0.0031091190066945273,-0.023204111130326055
-0.021845620722160675,-0.005732640147471102,-0.023512660845881328
-0.023083215637598187,-0.0060899242271261755,-0.024030061467783526
-0.023527269149781205,-0.005091715593152912,-0.022978276319918223
-0.02257927553728223,-0.004781546522281133,-0.023581837012898177
-0.021080059013911523,-0.005603107638307847,-0.022661342882202007
-0.02086453059746418,-0.005766436515841633,-0.021865442249691114
-0.021858291802345775,-0.005480657364387298,-0.023459766453015618
-0.02378882527409587,-0.005305905688146595,-0.02341386425541714
-0.02613353899505455,-0.006599872904189397,-0.021496813133126125
-0.027510459403856657,-0.007916778486105613,-0.02234560452052392
-0.025859906600089744,-0.009012857844936661,-0.022995940526016057
-0.02435807982692495,-0.00865629317559069,-0.02214032610936556
-0.02493124338798225,-0.005932923158979975,-0.022605159756494686
-0.025359653591294773,-0.005024487563787261,-0.024837234377628192
-0.02422885700070765,-0.005628374765365152,-0.02686448897293303
-0.023109263565856963,-0.004503139734879369,-0.02710114677029196
-0.02379860779910814,-0.004925761004415108,-0.027857080567628145
-0.024204666260629892,-0.007267875844263472,-0.029237049602670595
-0.024006130843190476,-0.0077991016951273195,-0.029335758881643414
-0.02420314194750972,-0.006745925475115655,-0.02855674028978683
-0.02346901601413265,-0.006645132998528425,-0.028190273951622657
-0.022414151317207143,-0.0069741627157782204,-0.027340201995684765
-0.021974406990921125,-0.007390786777250469,-0.026740823159343563
-0.02101143945765216,-0.007547148015873972,-0.02768194281088654
-0.019948087356169708,-0.007150623332563555,-0.02789398240565788
-0.019077377146459185,-0.0060022762227163184,-0.025337130864500068
-0.019594146579038352,-0.003141725983368815,-0.02306873102497775
-0.02345270331716165,-0.001997879508053302,-0.022674874344374985
-0.02641121500346344,-0.00200562726604403,-0.022916990928933956
-0.025235289285774343,-0.003483778073132271,-0.022392001483240165
-0.0231510912271915,-0.004791454102814896,-0.022999416614766233
-0.02362099985475652,-0.004745033493236406,-0.023728047381155193
-0.024151655452442355,-0.005280228833726142,-0.02227486220363062
-0.023520165996160358,-0.004476964477362344,-0.021307703718775883
-0.023873983082012273,-0.0024195367132051615,-0.022205107597983442
-0.024352784748771228,0.00018331216722344834,-0.023401433281833306
-0.02244145071017556,0.0011678714599838713,-0.023948490706970915
-0.01958236680366099,-0.00011817584777418233,-0.0237463646044489
-0.019805274860118516,-0.0007991181405486714,-0.02280771150253713
-0.021076393750263378,0.001027856797009008,-0.021732666937168688
-0.01996416540350765,0.000837925938412809,-0.019975792383775115
-0.018875680325436406,-0.0015616327573297895,-0.018350199752603658
-0.019769440768868662,-0.002085407004415174,-0.019108170818071812
-0.02095714989991393,-0.0002781141006380494,-0.020387076801853254
-0.022466039808932692,0.00015202411418613337,-0.022158561478136107
-0.02368135392316617,-0.0010361211479903432,-0.023001844965619966
-0.02335503086214885,-0.0010897638276219368,-0.023583272195537575
-0.02344350104976911,-7.070808294429298e-05,-0.025123961677309126
-0.02382001548539847,-0.0012238236877237796,-0.025348041162942536
-0.02362621307838708,-0.0035162813674105564,-0.02456852416798938
-0.02311253956577275,-0.004325803274696227,-0.02408489672234282
-0.02273675454489421,-0.003269056378485402,-0.024688341000000946
-0.023833743398427032,-0.0024288253825943684,-0.026622094082995318
-0.02514802872610744,-0.002828806600518874,-0.026703890398493968
-0.02445113568683155,-0.00253735697697266,-0.02562599729571957
-0.02342124753340613,-0.0030864321161061525,-0.02434857378830202
-0.02423212026769761,-0.005067884558229707,-0.0243897065956844
-0.02561967630754225,-0.00502811371916323,-0.024813243726384826
-0.026336001610616222,-0.0038664429666823708,-0.025557126718922518
-0.026368577891844325,-0.002381165813858388,-0.02622472857183311
-0.026416651962790638,-0.002665555257408414,-0.024881574063329026
-0.02653623596415855,-0.003559862761903787,-0.023025231712381355
-0.02681995465536602,-0.004493052983889356,-0.023851043806644157
-0.027275415050098673,-0.004632424406736391,-0.02656716969795525
-0.027603673515841365,-0.002711088200157974,-0.027612783014774323
-0.026287616492481902,-0.001322993625763047,-0.027275293177808635
-0.02320941348443739,-0.0019505794170981972,-0.026408953999634832
-0.022504453227156773,-0.002851202680176357,-0.025020766770467162
-0.02524047340557445,-0.0035242901503806934,-0.02197091635025572
-0.025975468815886416,-0.0035006296457140706,-0.019869437892339192
-0.02306086207681801,-0.0038398038668674417,-0.022139502107165754
-0.020800624042749405,-0.006326632501441054,-0.026475448976270854
-0.020974413928342983,-0.008224941666412633,-0.027431360649643466
-0.022541886210092343,-0.007184186415543081,-0.025040651962626725
-0.02306739224877674,-0.0049226582632400095,-0.023907601644168608
-0.024069298888207413,-0.003333354925416643,-0.0233473601838341
-0.02499479342077393,-0.0028541476240206975,-0.022986736439634115
-0.024200775442295708,-0.0033480421279818984,-0.02349916940147523
-0.023681852326262742,-0.0037992288071109215,-0.023114787836675532
-0.023831349608371966,-0.004156614068051567,-0.021811973056173883
-0.025106954126385972,-0.005808072273794096,-0.022447882656706497
-0.027086085538030602,-0.007073850156302797,-0.025036593797267415
-0.028441536414902657,-0.007737653504591435,-0.025564708266756497
-0.02894225144700613,-0.007766551789245568,-0.02474367829563562
-0.02720729935390409,-0.0066977195274375845,-0.02504415715520736
-0.025807752535911277,-0.005207067260926124,-0.025018525775521994
-0.025394141630386002,-0.006425435003620805,-0.02432579276501201
-0.024219501938205212,-0.008869928933563642,-0.023923174012452364
-0.022759368221159093,-0.009937215509125963,-0.024923074306570925
-0.02191689236497041,-0.009819777005759533,-0.026110645194421522
-0.02234377279819455,-0.008623659596196376,-0.026344407160650007
-0.022935839297133498,-0.007705025382165331,-0.027010250050807372
-0.021983247279422358,-0.00698162148182746,-0.027897694963030517
-0.020748811948578805,-0.006881909939693287,-0.0286581434920663
-0.021298223146004602,-0.005878739557374502,-0.027693460651789792
-0.022493137294077314,-0.005486889222083846,-0.029058794098091312
-0.022310889107757248,-0.004872549197898479,-0.029227778213680722
-0.022856995201436803,-0.005197068730922183,-0.028106614990974776
-0.025398509023943916,-0.006330142696242547,-0.026748417440103367
-0.02726745151448995,-0.005342561962606851,-0.02530935307731852
-0.026676716515794396,-0.0030468806926364778,-0.024229306291090325
-0.025863468181341887,-0.0017514656747152912,-0.02418599251541309
-0.02593323733890429,-0.0019094727576884907,-0.02497201057849452
-0.025585517505533062,-0.00418591753259534,-0.02506528289814014
-0.02471063817210961,-0.005209454229770927,-0.025010014724102803
-0.023021475499263033,-0.0034265669910382712,-0.025826249839155935
-0.021303943867678754,-0.0016844355741341133,-0.02542542824812699
-0.020357676476123743,-0.002471253537805751,-0.024374099666601978
-0.021692345399060287,-0.004185949819657253,-0.02300857158843428
-0.023458123905584216,-0.0037854381389479386,-0.02309978663106449
-0.024009817934711464,-0.003006319275300484,-0.02229748497484252
-0.02224926538474392,-0.0019217229692003457,-0.020554665752570145
-0.020738705643452704,-0.001511526988906553,-0.020426006813067943
-0.020330144252511673,-0.0027232515549258096,-0.020776369638042524
-0.021174815628910437,-0.0030444734875345603,-0.021469128114404157
-0.022826054191682488,-0.0024225100787589327,-0.022447342416853644
-0.022680291294818744,-0.0026678972062654793,-0.022412143152905628
-0.022106780306785367,-0.0019106778381683398,-0.02273788777529262
-0.02196969580836594,-0.0004699763849203009,-0.02404324732196983
-0.021721913071814924,0.00011941718014440994,-0.02290941120008938
-0.02178800968977157,-0.0015362044223365956,-0.022350059225573204
-0.022676013031741604,-0.002184934828619589,-0.023660060833208263
-0.023875416445662268,-0.0007056395361360046,-0.02496120760042686
-0.024667124307597987,0.0012261028814464225,-0.02409159606031608
-0.024785696950857528,0.002220081341874902,-0.02258914173580706
-0.026457450076122768,0.0006336430828923767,-0.022370424630935304
-0.02803110510285478,-0.001229000986313622,-0.02311372008989565
-0.0277891376754269,-0.002922988642239943,-0.023645599867450073
-0.026314060960430652,-0.0049018390200217254,-0.02230713471362833
-0.025795967303565703,-0.006071962616260862,-0.02204337033617776
-0.02583302375569474,-0.0059886469898629,-0.02232989209005609
-0.025740631826920435,-0.004139655175094958,-0.022937103494768962
-0.025256404114770703,-0.0018872736973207793,-0.023307027731789276
-0.024746153940213844,-0.002102924554492347,-0.023323833374888636
-0.025462646590312943,-0.0036349483707454056,-0.024947974452516064
-0.025835577616817318,-0.004691029062087182,-0.027373664124752395
-0.024995066269184463,-0.004683683982875664,-0.027945936381001957
-0.024962009774753824,-0.006114954430813668,-0.02727912760747131
-0.024573726477683522,-0.007178079158620676,-0.028132546503911726
-0.024575041607022285,-0.005987443273625104,-0.029366232411121018
-0.024994677005452104,-0.002710656872295658,-0.028631884561036713
-0.024782853870419785,-3.5633306083582283e-05,-0.026313997295801528
-0.024027043764363043,0.00035110267049276445,-0.02427301660645753
-0.02199689333792776,-0.0010044956297861063,-0.02408070577075705
-0.020493736883508973,-0.001046838747242873,-0.024345898054889403
-0.02136555667675566,-0.0010914841368503403,-0.024070341169135645
-0.0227791733777849,-0.0017530333025206346,-0.02571822733443696
-0.02332123403903097,-0.0015302613292078604,-0.027563166440813802
-0.023148810214479454,-0.004190540494164452,-0.028036576622980647
-0.021357289369916543,-0.005824003892485052,-0.028322225261945277
-0.01950600926647894,-0.004983954568160698,-0.027698541089193895
-0.020227807908668183,-0.0034706818041740917,-0.02649675661814399
-0.021833559003425762,-0.002587928975117393,-0.026103900381713174
-0.022216016077436507,-0.0022871636247145943,-0.02674105235200841
-0.02182422213081736,-0.0023315999442274915,-0.027384652639739215
-0.02184141158068087,-0.0029500160962925293,-0.027761527235270478
-0.02177476380893495,-0.0034572453841974493,-0.02624871012812946
-0.021333256881916896,-0.004080986855115043,-0.02466575097059831
-0.020514264178927988,-0.005356834662961774,-0.024347611542907543
-0.021140880562597886,-0.006115983524068724,-0.024192459022742696
-0.021008456315030344,-0.0062112053456075955,-0.023436397896148264
-0.020347357349237427,-0.005082866664452013,-0.021870593627681956
-0.019913353753509,-0.00491414812131552,-0.02068103822239209
-0.01870318374130875,-0.006375504653988173,-0.02148922794731334
-0.019581440938054584,-0.007470654509234009,-0.022848564185551368
-0.021576983272098005,-0.006167818355606869,-0.022453627025242895
-0.020749273971887305,-0.005590174168901285,-0.023724622224108316
-0.0195147604244994,-0.005302597401168896,-0.024024095182539895
-0.019934275769628584,-0.0030060182325541973,-0.023417622287524864
-0.022329051716951653,-0.0008076111157606647,-0.024792903786874376
-0.02512968967494089,-0.0026041095679829596,-0.026171732315560803
-0.025794322937144898,-0.005280086497805314,-0.026345647711423226
-0.024107328499667346,-0.006130138444859767,-0.026098998205270618
-0.023817930923542008,-0.006073397344152909,-0.024585193386883475
-0.024755023332545534,-0.0055723853620293085,-0.02434080670354888
-0.026023501050076447,-0.0038715020309609827,-0.0260070610238472
-0.027012787541025318,-0.0025494441615592223,-0.024503176973666996
-0.026786945454659872,-0.002851612634913181,-0.02197648245783057
-0.025190694941557012,-0.001920344175232458,-0.021027970433351584
-0.02478032729413826,-0.0026273473849869333,-0.021287540221237577
-0.02518733890610747,-0.0036286810427554883,-0.022033231289242394
-0.025148949134745635,-0.003749994903046172,-0.022946534954826348
-0.02414689151919447,-0.0038525095078512095,-0.023514372514910065
-0.023277196305571124,-0.0028036329240421765,-0.023062464606482536
-0.023099650206859224,-0.0012868946441813023,-0.02222305556642823
-0.023541972041130066,-0.000964870082498237,-0.0217305187106831
-0.023251865059137344,-0.0020952606973878574,-0.022751622964278795
-0.024208227841882035,-0.00250341486207617,-0.02566395232861396
-0.02498087997082621,-0.0017084840919778799,-0.025388326321262866
-0.024629327526781708,-0.0012525329111667816,-0.02362457598792389
-0.02355405013076961,-0.0034382264857413247,-0.022879034077050164
-0.025772045773919672,-0.005449576747196261,-0.02317871076229494
-0.027565614800550975,-0.0046433115130639635,-0.023432703528669663
-0.0264676746155601,-0.003585670810934971,-0.023762560886098072
-0.024399167159572244,-0.0038916500670893583,-0.024221888452302665
-0.023256019630935043,-0.0035573007153288927,-0.024812428819132037
-0.023182601580629125,-0.00257010105997324,-0.025842826289590448
-0.023750650143483654,-0.00309114511765074,-0.02717951065278612
-0.025298519176431,-0.0037568297557299957,-0.027240805138717405
-0.025719687982928008,-0.0025642143555160146,-0.02466617115715053
-0.023970904294401407,-0.0010352372328270576,-0.022446500224759802
-0.02319786108273547,0.000395227857552527,-0.021366487999330275
-0.024837614546413533,0.00017765063375918544,-0.020995303202653304
-0.026579244149615988,-0.0017921478274729452,-0.02221764407295268
-0.02733459768933244,-0.0032311702398146736,-0.025574614483048208
-0.027043510272051208,-0.003531345555529697,-0.026845011234399863
-0.026273572075297125,-0.0037164506920817075,-0.026718149456428364
-0.02592892269603908,-0.00438733286500792,-0.02559938184276689
-0.02597983075247612,-0.004248115601512836,-0.023904531190055422
-0.025254441425204277,-0.0035256866794952657,-0.024706188924028538
-0.025404347979929298,-0.003251532007197966,-0.02622680040076375
-0.025571387595846318,-0.0036411581731954357,-0.025894780264934525
-0.02489188227627892,-0.005093428626423702,-0.024948858481366187
-0.023857008272898383,-0.0045942065298731904,-0.024388595193158835
-0.02217790279246401,-0.0012321121403147117,-0.025241621187888086
-0.022951669961912557,-0.0008396532962251513,-0.027751046218327247
-0.02359592508582864,-0.0038972648326307535,-0.028679889510385692
-0.021730997104896232,-0.005099551344756037,-0.02760985807981342
-0.02256534935440868,-0.003944144737033639,-0.027253521693637595
-0.02349611713725608,-0.0025579736302461242,-0.027879184926860034
-0.02265966213599313,-0.0017286484990108875,-0.026262050596415065
-0.022127165721030906,-0.00226028578254045,-0.024045762984314933
-0.022803933461545967,-0.002525405307096662,-0.0235819006775273
-0.023333770514000207,-0.0021882283363083843,-0.02380032674409449
-0.0224863579205703,-0.0023863622118369676,-0.021472693333635107
-0.020225003027007915,-0.0021713622118113562,-0.02047493399004452
-0.02011521064559929,-0.001616804070181388,-0.02300638152519241
-0.020744173525599763,-0.0016592284737271257,-0.02436495378788095
-0.02127192055922933,-0.0033753688057913678,-0.024522147214156576
-0.0216585976886563,-0.006211522304511163,-0.0246570252784295
-0.022005648133927025,-0.007113222636689898,-0.024975410269689746
-0.022305323000182398,-0.005587463419942651,-0.024275579562527128
-0.021964764528092928,-0.004005041773780249,-0.024239303456852213
-0.021423375073936768,-0.005029769454267807,-0.025191404347424395
-0.021892232325626537,-0.006081238552724244,-0.02495308763172943
-0.022702608475810848,-0.004840316705667647,-0.022465124857262708
-0.02384908657404594,-0.0023934260298119625,-0.020648585632443428
-0.024414583094767295,-0.001743326720315963,-0.021286139599396847
-0.024553304683649912,-0.0025676047243905487,-0.02289521580678411
-0.02468195089022629,-0.0028583638140844414,-0.022450692995334975
-0.024529581423848867,-0.0039381629903800786,-0.021894949895795435
-0.023176255126600154,-0.004650355094781844,-0.024037115508690476
-0.021856261810171418,-0.005497889105754439,-0.025324037778773345
-0.02171054256905336,-0.004830746547668241,-0.024356999347219244
-0.022981852453085594,-0.0035916118577006273,-0.025390589144080877
-0.022915886802366003,-0.004201589945296291,-0.026823216103366576
-0.02269646392960567,-0.003974189894506708,-0.02599064100650139
-0.02361993392696604,-0.003363985570103978,-0.026611895009409636
-0.02381840931775514,-0.003758616685445304,-0.028893417038489133
-0.022538126358995214,-0.0047727062337799,-0.030103645258350298
-0.02108375701936893,-0.0057542106333130505,-0.02965263593068812
-0.020446021153475158,-0.005901429631194333,-0.02786473669402767
-0.019710254491656087,-0.005817233613925055,-0.026616875402396545
-0.020650519218179397,-0.005102169780002441,-0.02659753408806864
-0.024249897251138464,-0.003861054210574366,-0.027700361897586845
-0.025787769118323922,-0.004008639734820463,-0.02769604543573223
-0.02566781586210709,-0.004858971806243062,-0.02603505527076777
-0.023935675926622935,-0.005749216597905615,-0.02545343158999458
-0.022836562493466772,-0.006253006631595781,-0.026835343305720016
-0.023159054762800224,-0.006329198640742106,-0.025080731575144455
-0.02369971298321616,-0.005089607384434203,-0.023106380467652343
-0.023603126464877278,-0.003910737632395467,-0.024185290385503322
-0.023667886125622317,-0.0039097576518543065,-0.02539374509069603
-0.025566339900251478,-0.0043751474549935665,-0.024479813873767853
-0.026673724278225563,-0.0040311306293006055,-0.022129834178485908
-0.02670224421308376,-0.0035861087326338748,-0.021024301531724632
-0.02704537291720044,-0.004262688435119344,-0.023761618649587035
-0.027206604499951936,-0.004266569249011809,-0.025485682272119448
-0.02702805431908928,-0.0024052772005234146,-0.024500210201949812
-0.026233185053570196,-0.0028274105261516524,-0.024325903723365627
-0.0246502531808801,-0.00692827052262146,-0.02469705941621214
-0.02446198050165549,-0.008606500159658026,-0.024830278562149033
-0.025515440938761458,-0.008390628863708116,-0.02354673961235676
-0.026191810320597142,-0.005967384367977502,-0.0236494615819538
-0.025223747798008844,-0.004965500920661725,-0.023628261260455474
-0.02421511999273207,-0.004411537702253554,-0.02341382423765026
-0.024311539164045826,-0.004341697604104411,-0.02350906652281992
-0.02468649108777754,-0.004361592345958343,-0.023556811356684193
-0.024240269340225495,-0.0024967362151073758,-0.022358088244800456
-0.023778959075571038,-0.0012879980886282283,-0.02057501842500642
-0.023654485630686395,-0.0019418976080487482,-0.019898170648957603
-0.023821316062822007,-0.0016278229395538801,-0.01993159639823716
-0.024596874936833046,-0.0008742816248741292,-0.02215841959696263
-0.02435396527289413,-0.0023585530470882077,-0.024822134946589358
-0.023009883079794236,-0.0026631917080521816,-0.025783672754187137
-0.023488615624955855,-0.0025778372219065204,-0.026810990675585344
-0.02432632027193904,-0.002841932428054861,-0.026559990146779455
-0.024250821297755465,-0.00261725767813914,-0.025799554350669496
-0.023743696146993898,-0.002313723598490469,-0.02524144292692654
-0.022451253244071268,-0.0030111236810625996,-0.024841330741764978
-0.020612715161405504,-0.0024864978058758425,-0.024346849386347458
-0.020578869225573726,-0.0010628777999954764,-0.023586448151036166
-0.021082967577967793,-0.0007164455269048631,-0.023573125872644596
-0.02103496626659762,-0.0014687713019156945,-0.023648053684155457
-0.021652142095263116,-0.002078380020975601,-0.02259573375340551
-0.02168393439205829,-0.003380740963621065,-0.021261801521177404
-0.02196192326664459,-0.005450774551718496,-0.022615977286477573
-0.023178328774520196,-0.006518146619782783,-0.02620709165057633
-0.02322866566828452,-0.005607994353340473,-0.0274932954198448
-0.0223491333599668,-0.006461240445787553,-0.026570276531856507
-0.02155601032427512,-0.007546580491180066,-0.024093180400086567
-0.021661631762981415,-0.0069469065238081384,-0.022525482563651167
-0.022380290829460137,-0.004817468834517058,-0.023832944862078875
-0.022744805391994305,-0.0035305640722071985,-0.024907207262003794
-0.023541000700788572,-0.0038905891415197402,-0.024213419237639755
-0.023593362129759043,-0.005149480784893967,-0.023433982278220356
-0.022847971195005812,-0.007466962415492162,-0.02464683711878024
-0.02150086402252782,-0.009273288924305234,-0.025288687538704835
-0.021134317648829892,-0.008849928235576954,-0.024794682758511044
-0.023175727619673125,-0.0071834401751402766,-0.0252720492426306
-0.02432709516142495,-0.004867666575592011,-0.02804299583658576
-0.023593784135300666,-0.004198951501166448,-0.028978311092942022
-0.022482272470369935,-0.004292572157282848,-0.025883904527290724
-0.022761281798011623,-0.005016994236939354,-0.023052545657265
-0.02360515463806223,-0.0057348288464709185,-0.02379308716626838
-0.023820710339350626,-0.005654404958477244,-0.024141896574292332
-0.02417648101982195,-0.0036600833936972776,-0.021530140656977892
-0.023928905648062937,-0.0019171827716490952,-0.02083277104247827
-0.0239205764955841,-0.001608901015970332,-0.02230476457043551
-0.024461320208502002,-0.002348070665902924,-0.02169280924135819
-0.024909368221415207,-0.0030574860829801764,-0.020838811906287447
-0.024477405531797558,-0.00291729293167009,-0.022261410776991397
-0.023878046704339795,-0.0016632957340334542,-0.023574802980874665
-0.023364318622043356,-0.0018297645283382735,-0.021392799681052566
-0.023328972019953653,-0.0033362910016876413,-0.019842387700919062
-0.023716978830634616,-0.0028574670523084933,-0.02043888707703445
-0.023926459107315168,-0.002942283117590705,-0.021729581931140274
-0.023681588572799228,-0.0033163594252982875,-0.022449030439020135
-0.02393059548921883,-0.0034653605780476937,-0.024571205358370207
-0.024451390345348045,-0.004438225005287677,-0.026273839466739446
-0.023841941583668813,-0.00455056624559802,-0.026702673494582996
-0.023437269192072563,-0.003937674136977876,-0.026487690774956718
-0.024222448701038957,-0.003332048891024897,-0.02678774035302922
-0.02515870801289566,-0.001728681354506989,-0.027951122319791466
-0.024812041374389082,-0.0001304155574644028,-0.02838237014657352
-0.022691807316732593,-0.00011830816504243558,-0.027781132303061895
-0.021377087250584736,-0.0020247985048627015,-0.02647071778483223
-0.022000078388373367,-0.0030252545002440456,-0.025163744794554077
-0.023443815734935924,-0.0036054882457392523,-0.02484428114257753
-0.022915866793482564,-0.0049245650188822765,-0.024659493647050112
-0.022380716472980566,-0.006427042535506189,-0.02476243389537558
-0.022428655938711017,-0.006924289209564449,-0.025588864446035586
-0.021743342585978098,-0.0057747861319512594,-0.026911511668004096
-0.021890662537771277,-0.004816101863980293,-0.02600816333142575
-0.02188070720876567,-0.004095280473848106,-0.024235831006080844
-0.021271509467624128,-0.0032005302728066454,-0.022229280148167163
-0.02174564724555239,-0.003072555955441203,-0.022498374164570123
-0.022544658349943347,-0.003564816097423318,-0.0254631886491552
-0.021554005797952414,-0.003144647052977234,-0.02663992745510768
-0.02043777385551948,-0.0022798301415605238,-0.0245935170823941
-0.018523527614888735,-0.0021778932932647876,-0.02305715679540299
-0.018354265193920583,-0.0015422950809806935,-0.023020651497063227
-0.019847053408739157,-0.0022469212126452476,-0.024121869500959292
-0.021722138626500964,-0.0028916338123963214,-0.024812623450998217
-0.022239806639845483,-0.003317002438052441,-0.02392951319052372
-0.023670403606956825,-0.004758741397381527,-0.02398802462266758
-0.02540904279157985,-0.005935235549259232,-0.02468545972078573
-0.026105382858077064,-0.005164672984392382,-0.024984190531540662
-0.02626912646519486,-0.0030747009986953344,-0.025542418370605446
-0.025729057597345673,-0.0016619886764601688,-0.025248669771826826
-0.02427732943033334,-0.001453364461667661,-0.024549533918616362
-0.023191156287794,-0.001777989723450446,-0.023806473109289072
-0.023271666577784345,-0.0016974105392364436,-0.024673578082001768
-0.024733422833378427,-0.0018393038772046566,-0.025918485334841534
-0.02500480695744045,-0.0010051027174995397,-0.025024388378369622
-0.0243950926233083,-0.0006561892291756521,-0.02368220521020703
-0.025297013053204864,-0.0027790765670943074,-0.024109605874400586
-0.027324715119902976,-0.004332640855864156,-0.02507243334548548
-0.028557818950503133,-0.004042335604026448,-0.02687267078727018
-0.028857815777882934,-0.0040083764361042995,-0.027439737095846795
-0.028677925001829863,-0.004747800176119199,-0.02680928446352482
-0.028961569114471786,-0.0053022622523712926,-0.02633864278323017
-0.02913223761424888,-0.0064238920458592474,-0.025895420549204573
-0.02954490264528431,-0.008060409527388401,-0.025449580789427273
-0.028838478101533838,-0.009297553333453834,-0.025105580789386295
-0.027855057851411402,-0.00739576853447943,-0.026635374524630606
-0.028582828235812485,-0.0030040080218896037,-0.028374795874697156
-0.029675009500351734,-0.0015525412209171918,-0.0270766959147295
-0.028963277145521715,-0.0028930342068633763,-0.02375799886067398
-0.026808795155375265,-0.004219607490085764,-0.021310186639311723
-0.024760429369052872,-0.0041420657908020075,-0.021694975657737814
-0.024018332624109462,-0.003024123543582391,-0.02392594251432456
-0.025670700779301114,-0.002622195324875065,-0.026133853680221364
-0.02730079177126754,-0.0034047609460685635,-0.02728716208366677
-0.02704613325477112,-0.003947268851334229,-0.0274621070275316
-0.025521789211779833,-0.0027715684609574964,-0.027368980227038264
-0.02409905573586002,-0.0015849077499296982,-0.027851485356222838
-0.023436063202098012,-0.0007621804911650543,-0.028728711185976863
-0.022415855710278265,-0.0007546645974798594,-0.02930750088125933
-0.02087689790641889,-0.0017032681398632121,-0.027656089514493942
-0.020329242033767514,-0.0006013906954649428,-0.027207610401092097
-0.01964653711183928,-0.0003384144520168775,-0.027355195925338194
-0.019642637198558077,-0.0007601802280987613,-0.02584062167443335
-0.019887953385477886,0.00025863593577923893,-0.023176045942818746
-0.020598099581548013,0.0008455515967398242,-0.021101179299876094
-0.02190590021200478,0.0006843742994533386,-0.0207011016755132
-0.021989459128235467,-0.00021440219200030697,-0.02227430377388373
-0.020191595467622392,-0.002071939888992347,-0.023920969397295266
-0.01878627881524153,-0.003789491074712714,-0.02467763624736108
-0.018341306713409722,-0.004469664418138564,-0.023877575586084276
-0.018231630747322924,-0.005305640570441028,-0.02210797174484469
-0.018798547898768447,-0.006210113951965468,-0.020612660591723397
-0.019505483578541316,-0.006235464297787985,-0.021129957531229593
-0.02053785283351317,-0.005176451850275043,-0.02116788709827233
-0.022250464098760858,-0.0043817440200655255,-0.02082691753457766
-0.0238455777434865,-0.005058579517935868,-0.020700734239653684
-0.024034216039581224,-0.005606895683740731,-0.022355128749040887
-0.024342383767361753,-0.0062146818891051225,-0.023847025659051724
-0.024073920940281823,-0.005946146757196402,-0.02268928619741928
-0.023114287614589557,-0.00532099011252285,-0.021094812836963683
-0.023131226043915376,-0.005940981736785034,-0.020713652702397667
-0.024402173949056305,-0.00623004461886012,-0.02137647425115574
-0.025098084734054282,-0.005683250947186025,-0.02310271156602539
-0.0242344740399858,-0.005334092293196591,-0.023792781576048583
-0.021543490220210515,-0.006138484422990587,-0.02319503437320236
-0.019606142814154737,-0.00733431215849123,-0.02481560477463063
-0.01901406722026877,-0.00669303881295491,-0.027913652957067825
-0.018660191926755942,-0.0045368742576101795,-0.028524707886390388
-0.018627362806000747,-0.0036849771731795045,-0.029367378374445252
-0.02033149758062791,-0.0045114043132343795,-0.029998938771313988
-0.020548277461784892,-0.004118884135095868,-0.029149647161830217
-0.02019697058130987,-0.003660031779872952,-0.027905552997253835
-0.021474161258083768,-0.0033721487397997407,-0.028124097298132256
-0.022906724552740343,-0.00308812377625145,-0.028124064556322992
-0.023479518858948722,-0.0033326366519759176,-0.027096330086351372
-0.024186721930163912,-0.0031830415991862537,-0.026184015951002948
-0.025268451281590387,-0.0017587991578693618,-0.0256153416557936
-0.026127156161237508,0.0001037248154034387,-0.024681112336111255
-0.026476644052308984,0.0006772484653083666,-0.024332279281225055
-0.025294131773989648,-0.0019223432445869548,-0.022981910660746507
-0.02381718877586536,-0.004897523012914462,-0.022352369342115708
-0.023505104763899,-0.004887539489573101,-0.02506943383195903
-0.02299747575307265,-0.0028047595606039977,-0.028008587833028287
-0.023067481379257515,-0.0018120670119969873,-0.02740902709774673
-0.023481054086005315,-0.004431085017131409,-0.02491420673322864
-0.022748841729480773,-0.005461623914015945,-0.025116467440966517
-0.022825048290542327,-0.004971868747816188,-0.02690323344722856
-0.02283608955622185,-0.003996568466391182,-0.026214584067929536
-0.023809589038137347,-0.0029392824671958806,-0.024681086870259605
-0.023970820620888844,-0.002601165306259645,-0.024901924916775897
-0.0230308469326701,-0.0027197518193133874,-0.025549639758537523
-0.021957135686534457,-0.003803301751759136,-0.024040497009991668
-0.020607534679584205,-0.004189684659650084,-0.020980507542844862
-0.020311565094743855,-0.0050571338761074,-0.019743556549656205
-0.022010568500263616,-0.00612839585301117,-0.02040696745098103
-0.02300004052813165,-0.004713058388006175,-0.022324562451103702
-0.02292879617016297,-0.002959215407827287,-0.022682435883325525
-0.022114083549240604,-0.004537800577963935,-0.022897074813954532
-0.021925365217612125,-0.005423827133199666,-0.022399404770112596
-0.022428273950936273,-0.005486131612997269,-0.023153012080001645
-0.022715790692018345,-0.006910191586939618,-0.02421343742753379
-0.02283302637806628,-0.007039451247692341,-0.02370649053773377
-0.022822026949143037,-0.005679134574165801,-0.023330141630140133
-0.02293196666869335,-0.004446635102794971,-0.02353005220356863
-0.023101560145732947,-0.003687815933517413,-0.0243347640207503
-0.023044767658575438,-0.004149486812821124,-0.025171111701638438
-0.022581063603865914,-0.00585847556067165,-0.02493596912245266
-0.021901758373132907,-0.0062190115386329126,-0.024692444640095346
-0.02277983548992779,-0.00394827975469525,-0.02435202623018995
-0.024534007025067694,-0.0038973248592810705,-0.02401479650870897
-0.025283075956394896,-0.004938454367220402,-0.024355476853088476
-0.026248872018186375,-0.005416514795797411,-0.024847193344612606
-0.02673357266758103,-0.00443467160948785,-0.0269102820311673
-0.027695339667843655,-0.002690544533834327,-0.028591193768079393
-0.02836359453795012,-0.0014052695860300446,-0.028769003620254807
-0.027725518521037884,-0.0010084173709401512,-0.028468821255955845
-0.026463905669515952,-0.002305925136170117,-0.026451041776454076
-0.025597750209271908,-0.005148592663317686,-0.02391413363511674
-0.025107190595008433,-0.0066816019170801155,-0.024572924303356558
-0.02501171184121631,-0.005582136964221718,-0.026742744012153707
-0.0251498040597653,-0.003917493359040236,-0.026478997824597172
-0.02502517236280255,-0.003537813881848706,-0.02526705247873906
-0.02400346602371428,-0.0036915023429173743,-0.024673641746630892
-0.023035561753204092,-0.002783756826829631,-0.023534850697615184
-0.0233702921832446,-0.0016966741895885207,-0.02174826295231469
-0.022258172975853086,-0.0004717560386779951,-0.0217619144677883
-0.020463732653297484,0.0006907957867952064,-0.023822454750188626
-0.01995270577026531,-0.0003446247376359679,-0.024639117327751592
-0.020546274754451588,-0.000915021416858508,-0.02363100793445483
-0.020477593352552503,-0.00034308692420381703,-0.022036745576770045
-0.020205221517244354,-0.0014923066373739857,-0.02078239049296826
-0.020258645236026496,-0.0026308823635190492,-0.022317459297482856
-0.020304751160438173,-0.0028512815788417356,-0.024652108550071716
-0.021131943867658265,-0.003945230218960205,-0.02476968802511692
-0.022354659449774772,-0.005980596597510157,-0.02378010867687408
-0.021853906218893826,-0.006537447461596457,-0.02269991091452539
-0.022356760382535867,-0.00482117866340559,-0.021703413949580863
-0.023616325051989406,-0.0035640068745124154,-0.02302606480952818
-0.024589717213530093,-0.0037026661630079616,-0.023150647393777035
-0.02506064083718229,-0.002289777739861165,-0.022147873096400872
-0.024890754502848722,0.00027749405262511573,-0.021935200493317097
-0.024347249564016238,0.0006287005476224294,-0.02337194928259123
-0.025053472199942917,-0.000970259520727268,-0.02355054675717838
-0.026136107408092357,-0.0018485051214156556,-0.020463477994780988
-0.026133408027817495,-0.0010021882417277084,-0.01917908048199024
-0.026024632461485453,-0.00026901560090664134,-0.021183517674217
-0.02574867357907351,-0.0001665642201942319,-0.02199396476498805
-0.02597282946226187,-0.001308304149461037,-0.022124950191937387
-0.02632011819514446,-0.0032157943223865004,-0.02417439281998668
-0.026693829568102956,-0.0041966386561398394,-0.026178357074968517
-0.026143656214117073,-0.0046973113967396785,-0.0256271923717577
-0.02573584788478911,-0.004727000032289652,-0.025009827368194237
-0.026233221433358267,-0.005161874014447676,-0.026538496967987157
-0.027027661417378113,-0.006408395620383089,-0.02766594843706116
-0.02652455077623017,-0.006137898253655294,-0.025037115847226232
-0.02538902117521502,-0.004350695689936401,-0.023471469830838032
-0.025351348085678183,-0.0036034377899341052,-0.025581604859326035
-0.02528963341319468,-0.0043198378989472985,-0.028342590667307377
-0.02400118682999164,-0.005534757747227559,-0.02793216481222771
-0.0233783448493341,-0.006372890766215278,-0.02660558675415814
-0.024825754735502414,-0.006953192951186793,-0.02649742236826569
-0.026225741748930886,-0.006309556283667916,-0.02636316821735818
-0.02570400647528004,-0.004595238806359703,-0.02475048677297309
-0.025682786144898273,-0.004407220785651589,-0.023582400899613276
-0.025474817448412068,-0.0055533396334794816,-0.02165163095924072
-0.023501726900576614,-0.005679623882315354,-0.021746254788013175
-0.021898760678595863,-0.005882475306862034,-0.02357182529522106
-0.022101745344116352,-0.006938126261957223,-0.025438641387154348
-0.02326253888895735,-0.0062316203184309416,-0.025760349672054872
-0.02367139131820295,-0.003991518951806938,-0.024766284695942886
-0.024219358238042332,-0.0022013737179804593,-0.0231644280574983
-0.024573573682573624,-0.0015746992403364857,-0.021465506506501697
-0.023912723918328993,-0.0022148110474518035,-0.022642974727205
-0.023150339984567836,-0.0030410838007810526,-0.025140234356513247
-0.022420636014430784,-0.004041765350848436,-0.025270033802371472
-0.022327089027385227,-0.004819980404136004,-0.023921480533317663
-0.02315666642971337,-0.0062026419982430525,-0.024516177290934138
-0.02403023245278746,-0.006119109457358718,-0.025845516574918292
-0.024284461687784642,-0.004716014245786937,-0.02588304596429225
-0.024081800802377984,-0.003940743681596359,-0.025294675651821308
-0.02433236841170583,-0.004288634045224171,-0.02616314304759726
-0.024220027626142837,-0.0049094646783487406,-0.024744487745920196
-0.023997148673515767,-0.005234734999248758,-0.023396509277517907
-0.025654528144514188,-0.004528315457719145,-0.024349530576728284
-0.027880269044544548,-0.0037925390188320307,-0.025218427254003473
-0.027034771846956573,-0.0021944622403680114,-0.026226283807773143
-0.025353530872962438,-0.001377200987917604,-0.026947933292831294
-0.027466750907478854,-0.0023054826669977047,-0.026467354473425075
-0.028776064937119372,-0.002957309561679722,-0.027550819140742533
-0.026133904611924663,-0.0022241963506530738,-0.028977403417229652
-0.023615766622242518,-0.003223641897420748,-0.027574955311138183
-0.022423315385822207,-0.0045975148168508895,-0.023833317754906602
-0.023061216779751703,-0.004993094535166165,-0.022343790988088585
-0.022236601580516435,-0.004446056664164644,-0.021734649635618553
-0.02119709643011447,-0.0026234881715936353,-0.02305083762621507
-0.02193091859226115,-0.0015213487358778366,-0.025918263418134302
-0.022800453734816983,-0.0012585288686750573,-0.026950048777507618
-0.023708698790869676,-0.0005534496381187637,-0.026384786906419322
-0.022944121155887842,-0.000788329657552822,-0.024759985535638407
-0.020445828340598382,-0.0021280327473505167,-0.023523467461927794
-0.019499952031765133,-0.0032880745948205004,-0.022558255295734853
-0.021329615265130997,-0.005245585271040909,-0.022741593056707643
-0.023198728740680963,-0.007080661362124374,-0.02376712473051157
-0.022669801182928495,-0.007229476523207268,-0.023827184122637846
-0.021027484763180837,-0.005564950242842315,-0.02342716106795706
-0.021603827917715535,-0.004095550593774533,-0.024492484953952953
-0.02072270399366971,-0.005540470283449395,-0.024370849132537842
-0.018240914869238622,-0.005828642770211445,-0.02362461236771196
-0.017532544006826356,-0.003988718617620179,-0.02299039624631405
-0.018779908714350313,-0.002532339976824005,-0.021978656150167808
-0.020756038793479092,-0.003023260205736733,-0.021422025383799337
-0.020962965209037066,-0.0031432159630639944,-0.021738744180765934
-0.020361514543765225,-0.0023926174890220864,-0.022279104086919688
-0.02155236325052101,-0.0014531788110616617,-0.022603646357310936
-0.022395843188860454,-0.0014313657175080152,-0.02158225470338948
-0.021751133317593485,-0.0021217772427917225,-0.021301206288626418
-0.022291542336461134,-0.002811343847497483,-0.022298258045339026
-0.02436202521494124,-0.0034029269500024384,-0.022386531782103702
-0.02487788697180804,-0.004252422058925731,-0.024416454834863544
-0.023870885343058035,-0.004635864115698496,-0.025251039915019646
-0.02404006772849243,-0.0033824742331489688,-0.02644165579113178
-0.02428705192869529,-0.00375893773707503,-0.02657328877830878
-0.024500266590621322,-0.005459522526507499,-0.025811250452534296
-0.0247531079367036,-0.005568411324929912,-0.024926352125476114
-0.02537532418500632,-0.005466477432491956,-0.024565797502873465
-0.02568685704318341,-0.005617231181531679,-0.023598466214025393
-0.024734012185945176,-0.006111473794589983,-0.02351776674913708
-0.022651527615380473,-0.0057452307373750955,-0.023795928427716717
-0.023002017769613303,-0.003953802661271766,-0.022839016310172155
-0.023329253963311203,-0.002003586132559576,-0.022655081920675002
-0.021648811525665224,-0.0024951611976575805,-0.024335809939657338
-0.019984621758339927,-0.004515200998866931,-0.026265917767887004
-0.020136927560088225,-0.006312953701126389,-0.02711289380386006
-0.02126745857822243,-0.006771267180738505,-0.02531320023990702
-0.02164445504604373,-0.00484924430566025,-0.024894074158510193
-0.022155873011797667,-0.001883184268081095,-0.027761510864365846
-0.023208835045807064,-0.00044765047846340167,-0.028446547730709426
-0.023768006940372288,-0.00224305449592066,-0.02777945701382123
-0.02379538636887446,-0.004003604317404097,-0.028756860046996735
-0.023229591533890925,-0.00438115648648818,-0.029149523470550776
-0.02211912942584604,-0.0034803181279130513,-0.027924257665290497
-0.02141885670425836,-0.0019779004105657805,-0.026297719159629196
-0.02220008354925085,-0.0013628917940877727,-0.024084796677925624
-0.02233537088613957,-0.0005552169000111462,-0.02302301254530903
-0.022318801711662672,-0.00031602053240931127,-0.02369228604948148
-0.022502417778014205,-0.00041100736325461185,-0.024186234441003762
-0.02238839260826353,-0.0006943184871488484,-0.02312674951099325
-0.02139327443728689,-0.00027726784423975914,-0.024090844817692414
-0.019241288100602105,-0.0008145679544213635,-0.024571067115175538
-0.01894871093099937,-0.0020772836251126137,-0.021630616174661554
-0.020594781744875945,-0.0025087501853704453,-0.0200460126507096
-0.02240449612145312,-0.0020190550458210055,-0.023351169147645123
-0.022776514015276916,-0.001928795200001332,-0.027583060727920383
-0.021961761376587674,-0.0021546923107962357,-0.027521478841663338
-0.021383015337050892,-0.001769509253790602,-0.025985224056057632
-0.022179907318786718,-0.002269325250381371,-0.026815469027496874
-0.022782576706958935,-0.00248544756686897,-0.027960872102994472
-0.024339351512026042,-0.002537453383411048,-0.027691568902810104
-0.024076942281681113,-0.004318320861784741,-0.027723426683223806
-0.024956249035312794,-0.006130710971774533,-0.027902309739147313
-0.024307115381816402,-0.00492735216539586,-0.02664146086317487
-0.022746760805603117,-0.0030749138204555493,-0.024226757886935957
-0.022034651919966564,-0.003871928583976114,-0.023600410713697784
-0.022487001842819154,-0.004406529569678241,-0.02529889388824813
-0.02437253533571493,-0.003653246949397726,-0.02756433059403207
-0.025938470571418293,-0.00311275243802811,-0.02803535244311206
-0.02713432149903383,-0.0037786783195770113,-0.025915142032317817
-0.027650759875541553,-0.0045918832256575115,-0.023516959117841907
-0.0266061815636931,-0.004812901806872105,-0.022725649614585564
-0.0263481488218531,-0.003999505224783206,-0.02354761636524927
-0.02651750219229143,-0.004155983333475888,-0.02335153658350464
-0.02560649227234535,-0.00457057285530027,-0.02314972152817063
-0.023730290195089765,-0.005025949576520361,-0.023114671421353705
-0.024439459593850188,-0.007063351404212881,-0.024424767616437748
-0.02585981746960897,-0.009332955414720345,-0.02666063664946705
-0.026679783331928775,-0.009428573321201839,-0.027464320737635717
-0.027296822736389004,-0.008497719136357773,-0.026685827833716758
-0.026139885449083522,-0.0076071269177191425,-0.024869974367902614
-0.023900869564386085,-0.0060199513427505735,-0.02438025694573298
-0.022146690753288567,-0.005291189609124558,-0.02487832352926489
-0.020834377210121602,-0.005295637038216228,-0.024545344786019996
-0.020600409698090516,-0.004226524652040098,-0.0248507803917164
-0.021507436031242833,-0.0024077835405478254,-0.024876038878574036
-0.02350519207539037,-0.0039084438867575955,-0.02312977630936075
-0.025350083888042718,-0.005682694791175891,-0.023666872948524542
-0.026702427931013517,-0.004808453468285734,-0.024954382752184756
-0.026983383577317,-0.003743705519809737,-0.024271783331641927
-0.026382638679933734,-0.004255085968907224,-0.023939588572829962
-0.025108864065259695,-0.004490683750191238,-0.02419481643300969
-0.02468186357873492,-0.004826751592190703,-0.022901522243046202
-0.02568749914644286,-0.0037132028865016764,-0.02043238237092737
-0.026943551347358152,-0.0019326639630889986,-0.019469924154691398
-0.026378962502349168,-0.0016182477793336147,-0.020436938939383253
-0.024778031729510985,-0.0029827460821252316,-0.021867614123038948
-0.02310944728378672,-0.004495809207583079,-0.02319757368240971
-0.0226468218897935,-0.0043449513214000035,-0.024175400540116243
-0.023563983631902374,-0.0029837653983122436,-0.025384908440173604
-0.023979089746717364,-0.0025508832095511025,-0.025027282390510663
-0.025053413992282003,-0.0036611220366467023,-0.022286390958470292
-0.02598750143079087,-0.0035692924029717688,-0.02106720239680726
-0.025766998078324832,-0.0035735204164666357,-0.02204120028181933
-0.025508817998343147,-0.0030432520361500792,-0.02320491876162123
-0.026247949790558778,-0.0023802867872291245,-0.023505692297476344
-0.026406263714306988,-0.002753208946160157,-0.022619175069849007
-0.025543582523823716,-0.00365855839845608,-0.0228112348850118
-0.024349770683329552,-0.004816270120500121,-0.02416234383417759
-0.02373850657022558,-0.006775841484341072,-0.024741593733779155
-0.024245569875347428,-0.006169801963551436,-0.02537432919780258
-0.0237366184592247,-0.004207503025099868,-0.026988023819285445
-0.02220433634647634,-0.0038879616113263182,-0.02735631824180018
-0.021068206478958018,-0.004607133178069489,-0.02488604332029354
-0.020969027900719084,-0.0035597261103248456,-0.02332414806005545
-0.0220705278479727,-0.0028090767045796383,-0.025467665182077326
-0.022983847884461284,-0.002990411303471774,-0.02701926314330194
-0.022858239390188828,-0.004717227056971751,-0.026953870474244468
-0.022115895262686536,-0.005376020908443024,-0.026139559849980287
-0.021601690605166368,-0.004338510279922048,-0.025219871531589888
-0.022142492525745183,-0.003262755171817844,-0.026212501325062476
-0.023005490220384672,-0.002818816255967249,-0.02660867539816536
-0.022985212126513943,-0.003284128524683183,-0.02740439958870411
-0.023451233573723584,-0.004159690888627665,-0.027816342480946332
-0.024152834157575853,-0.00493839206683333,-0.02570513606769964
-0.02434865200484637,-0.0035033749554713722,-0.022833748516859487
-0.02373328788962681,-0.0002463118562445743,-0.021867814211873338
-0.023192189473775215,0.0010121441391675035,-0.02263397618662566
-0.02267622039653361,0.0004571408851461456,-0.022932743377168663
-0.023466700440621935,-5.704584893351239e-05,-0.021367262888816185
-0.024403727366006933,-0.002333338215976255,-0.020486724679358304
-0.023666421839152463,-0.0031710719667898957,-0.02236309228464961
-0.02276306986459531,-0.00489115063828649,-0.02566550756455399
-0.023002899979474023,-0.006249623766052537,-0.02568390300439205
-0.023229247744893655,-0.006487385689979419,-0.02385773041169159
-0.024527907953597605,-0.006424740149668651,-0.02291394594067242
-0.02554908860474825,-0.005669817255693488,-0.022500262275571004
-0.024276348995044827,-0.004468143742997199,-0.02209958438470494
-0.022096226530265994,-0.0037037459605926415,-0.023797056201146916
-0.020519146346487105,-0.0034958807191287633,-0.02592116652522236
-0.02030013274634257,-0.00494665619044099,-0.02447062433930114
-0.022492475181934424,-0.006516516805277206,-0.021835528968949802
-0.024292727175634354,-0.005733575562771875,-0.022269683540798724
-0.02377031705691479,-0.003451461225267849,-0.021690606445190497
-0.02361966653552372,-0.003845322225970449,-0.020686064090114087
-0.02438214869471267,-0.006704921815980924,-0.020425690308911726
-0.0229819070227677,-0.007614583864778979,-0.021185309378779493
-0.021603309505735524,-0.005145800059835892,-0.023286169380298816
-0.021831348931300454,-0.004146024821238825,-0.02517715074645821
-0.02203248550358694,-0.005428468284662813,-0.024905273676267825
-0.02125710125255864,-0.0071284594014286995,-0.023651757146581076
-0.02172905624320265,-0.006661898623860907,-0.024337918148376048
-0.022257669115788303,-0.004221098606649321,-0.026975762011716142
-0.022327820261125453,-0.003663792540464783,-0.028291044145589694
-0.022642007024842314,-0.003560455752449343,-0.02867039256670978
-0.02316010431968607,-0.002975545839944971,-0.028374763132887892
-0.022955720851314254,-0.002435233909636736,-0.0280115691566607
-0.0224155664909631,-0.001423154117219383,-0.02808094177453313
-0.02123006561305374,-0.0012012540082650958,-0.02787580160656944
-0.02120483804901596,-0.0013716557987208944,-0.026432533559272997
-0.021991319954395294,-0.0022800720671511954,-0.0242729493038496
-0.02209049489465542,-0.003149627673337818,-0.023016022169031203
-0.021372936316765845,-0.003921811185136903,-0.023717708245385438
-0.02167606544389855,-0.003223909516236745,-0.023622469598194584
-0.02410567867627833,-0.0011797177421613014,-0.022552820155397058
-0.02605464032967575,-0.0006067239155527204,-0.02390484223724343
-0.025353596356580965,-0.00141045870805101,-0.026600429919199087
-0.024092534658848308,-0.002105233534166473,-0.02844042501237709
-0.024334047338925302,-0.001874443682936544,-0.02768024023680482
-0.023364036678685807,-0.0014345341696753167,-0.02558017149567604
-0.023731645342195407,-0.000818498847365845,-0.023836762920836918
-0.023955335564096458,-0.0008845020147418836,-0.02286666858708486
-0.022612744942307472,-0.0025217859729309566,-0.022206606445251964
-0.02120174940500874,-0.002767502337519545,-0.021264064343995415
-0.021269979697535746,-0.0023381883238471346,-0.01936319677042775
-0.021747260689153336,-0.0016494379906362155,-0.020208490241202526
-0.022109576093498617,-0.001633074816709268,-0.023419079298037104
-0.02366961598454509,-0.0028812266918976093,-0.02558407504693605
-0.024827797460602596,-0.004169441126578022,-0.02525689524190966
-0.025016490326379426,-0.003114521177849383,-0.025296685635112226
-0.025151171939796768,-0.0015358438076873426,-0.025331435608677566
-0.025023897251230665,-0.000513565737492172,-0.025197990908054635
-0.023750810214551166,-0.0012427957472027629,-0.026525156499701552
-0.021626990928780288,-0.0026430209345562616,-0.027190146283828653
-0.02167782986361999,-0.0038484718061226886,-0.02675956056918949
-0.023943053747643717,-0.003630995479397825,-0.025397468562005088
-0.025782452212297358,-0.004044890374643728,-0.024767110517132096
-0.026298492230125703,-0.005764078196079936,-0.02604250403237529
-0.026114685169886798,-0.006578876764251618,-0.027972109819529578
-0.023944454369484447,-0.0061916434788145125,-0.029612154321512207
-0.021595773432636634,-0.006229087830433855,-0.02939702244475484
-0.02193180080212187,-0.0058389709920447785,-0.029170900234021246
-0.02491689519956708,-0.005074408818472875,-0.03010088221344631
-0.025980665668612346,-0.004848229309573071,-0.030540675652446225
-0.024300123186549172,-0.005506028628587956,-0.02913855314545799
-0.022339003407978453,-0.005856512416357873,-0.027043635782320052
-0.023014727048575878,-0.0056389853853033856,-0.02607524220366031
-0.023341499399975874,-0.004418297521624481,-0.02698628304642625
-0.022311422071652487,-0.003691211304612807,-0.026008334316429682
-0.022782212909078225,-0.0029573598112619948,-0.023238850189954974
-0.024005328668863513,-0.0028680194645858137,-0.022512322175316513
-0.023981092454050668,-0.002541774847486522,-0.023251579477800988
-0.023658247300772928,-0.00254344604400103,-0.023837012122385204
-0.024542016035411507,-0.00382951748179039,-0.024154180209734477
-0.024996437787194736,-0.005884890015295241,-0.02309658157173544
-0.02452730950608384,-0.00554269445274258,-0.021681493308278732
-0.024868610125849955,-0.002761738414847059,-0.022119094865047373
-0.02561992732807994,-0.0015698986999268527,-0.022787209672969766
-0.02518415749364067,-0.001848133706516819,-0.022650718165095896
-0.023790109480614774,-0.0016340436559403315,-0.0223404131247662
-0.022126514522824436,-0.0009301238605985418,-0.02238186789327301
-0.022061685740482062,-0.001801583607630164,-0.023195227186079137
-0.02218156987510156,-0.0038967168620729353,-0.023812419385649264
-0.021833729988429695,-0.006412546554201981,-0.023070348106557503
-0.022147618437884375,-0.007842591003281996,-0.022475138393929228
-0.022833239199826494,-0.008207242899516132,-0.02307176691829227
-0.023632775992155075,-0.008056137630774174,-0.02346433757338673
-0.02470967774570454,-0.007240113973239204,-0.021979225493851118
-0.024056258553173393,-0.005368731308408314,-0.021600897525786422
-0.022766607798985206,-0.0036400181215867633,-0.023790269551682286
-0.02176720772695262,-0.002661485723365331,-0.023469907318940386
-0.02135315844498109,-0.00358240754394501,-0.021794132408103906
-0.020636896806536242,-0.004216920387989376,-0.020632936866604723
-0.0206911499844864,-0.004584283033182146,-0.02247810880362522
-0.021213010768406093,-0.005681144557456719,-0.024325583581230603
-0.02173565917473752,-0.006394815500243567,-0.02427632898616139
-0.022424454073188826,-0.006120451871538535,-0.02399079858150799
-0.024063112505245954,-0.004832296781387413,-0.02481886804162059
-0.02514950574550312,-0.0048469778448634315,-0.026542116756900214
-0.024486918846378103,-0.005705315743398387,-0.027210446205572225
-0.022865602659294382,-0.006921932254044805,-0.02754430352069903
-0.02300024607393425,-0.007702585207880475,-0.026817009711521678
-0.024563005354139023,-0.007287473636097275,-0.02497511923138518
-0.02570012293290347,-0.005804607553727692,-0.022201938918442465
-0.026881516532739624,-0.00495988615512033,-0.02282255627505947
-0.027839678296004422,-0.005172329110791907,-0.023984026483958587
-0.028498954634414986,-0.005506516572495457,-0.022918622562428936
-0.027820426112157293,-0.004110120698896935,-0.02128222695318982
-0.02710024818952661,-0.003476789743217523,-0.020577237592078745
-0.0254248679993907,-0.0030895566851540934,-0.0194873155123787
-0.02332213807676453,-0.002309703631908633,-0.01928042183862999
-0.022603184334002435,-0.0008914587397157447,-0.021083080355310813
-0.0228022581723053,-0.0011589312407522812,-0.023443175450665876
-0.0237317453866126,-0.002391919679212151,-0.024173348720069043
-0.024475173631799407,-0.0021286748506099684,-0.023455208065570332
-0.024685206881258637,-0.0010771988172564306,-0.022595022528548725
-0.025052542696357705,-0.001370950712953345,-0.022822734536021017
-0.024620247131679207,-0.001785399831533141,-0.02444199526507873
-0.024491648218827322,-0.001702479607956775,-0.024965651391539723
-0.02468744969519321,-0.0014999169479779084,-0.025696997909108177
-0.023799693735782057,-0.003886311787937302,-0.024922021111706272
-0.023336822778219357,-0.0041445614442636725,-0.02419244992779568
-0.022316087779472582,-0.004235061169310939,-0.025640347303124145
-0.022381325834430754,-0.005928430709900567,-0.027572412363952026
-0.02254559876746498,-0.006391037004505051,-0.028386388294165954
-0.022816151613369584,-0.004941655333823292,-0.029052656827843748
-0.022467233065981418,-0.0036797564462176524,-0.028676562578766607
-0.021401790945674293,-0.003185464493071777,-0.026994164727511816
-0.01974667247850448,-0.0038613966353295837,-0.026223375243716873
-0.01852180685091298,-0.004689331490226323,-0.02661647704371717
-0.01910505488922354,-0.0048710858209233265,-0.025855048079392873
-0.02020450665440876,-0.005458578925754409,-0.023613771190866828
-0.022395281121134758,-0.006027411473041866,-0.0225057501666015
-0.02331196992599871,-0.005500432052940596,-0.02460776704538148
-0.022464559151558205,-0.004425706265465124,-0.02700532968447078
-0.022642689145868644,-0.003213331183360424,-0.02685628533072304
-0.02416230199742131,-0.0022859519503981574,-0.02608771865197923
-0.024964565454865806,-0.004072561296197819,-0.026590047127683647
-0.026112771593034267,-0.005210422386880964,-0.027008061806554906
-0.026874800823861733,-0.004713390353572322,-0.027039299311582
-0.025840265152510256,-0.0038318748920573853,-0.027379717721487395
-0.023820382921257988,-0.003727991725099855,-0.027500311261974275
-0.021805513824801892,-0.0033976261875068303,-0.026872950911638327
-0.021197525711613707,-0.0027904300168302143,-0.026962796255247667
-0.021422762074507773,-0.0016962530935415998,-0.028006616048514843
-0.021341891624615528,-0.00026166733846366697,-0.028370624931994826
-0.021471498257596977,0.0004948076934851997,-0.029353001082199626
-0.022024116333341226,-0.0001564374372264865,-0.028347811166895553
-0.022212650947039947,-0.00010487747204024345,-0.02551849502197001
-0.021592397388303652,0.00012259660309155151,-0.025173419999191537
-0.02199693517468404,-0.0012236221209604992,-0.027081978259957395
-0.024419039618805982,-0.0027549665446713334,-0.027777059585787356
-0.025966630346374586,-0.002455810999890673,-0.027842885174322873
-0.026450143195688725,-0.0003750922417111724,-0.027796275389846414
-0.025518513211864047,0.0011583244940993609,-0.02648653207870666
-0.02507435783627443,0.0006280315005824377,-0.02480767398083117
-0.025787196136661805,-0.000833394551591482,-0.023079925085767172
-0.025618941435823217,-0.0010308013997928356,-0.022131403966341168
-0.025055134756257758,-0.0022032318156561814,-0.02315875462954864
-0.02469814535288606,-0.004117465778108453,-0.024319220756297
-0.02547928670537658,-0.00348807134287199,-0.023254830011865124
-0.02495232729415875,-0.0021187424863455817,-0.021598836610792205
-0.02407560714345891,-0.0019042912526856526,-0.020931876861141063
-0.022883634301251732,-0.0031014053547551157,-0.020875293557764962
-0.022641715986537747,-0.004093392362847226,-0.021185165678616613
-0.02321614920219872,-0.005065939149062615,-0.021397981981863268
-0.024045466489042155,-0.006045391273801215,-0.020641991795855574
-0.02459754796291236,-0.006015018698235508,-0.020326986486907117
-0.0245946448558243,-0.005884157872060314,-0.019661134501802735
-0.024690551072126254,-0.005630106443277327,-0.01931862425408326
-0.02387709537288174,-0.005547738965105964,-0.019936873286496848
-0.02311147363798227,-0.004960802471032366,-0.020871559172519483
-0.02359826976316981,-0.0039455812839150894,-0.021585119611700065
-0.025022507543326356,-0.0028475058115873253,-0.023508719095843844
-0.025077095415326767,-0.0034288880215171957,-0.023451993911294267
-0.02387152380833868,-0.0019360245460120495,-0.02305631096533034
-0.023054939447320066,-0.0006553098614858754,-0.023727336156298406
-0.023543045244878158,-0.0015665324326619157,-0.025631181415519677
-0.02398748074483592,-0.0030153692023304757,-0.026615623937686905
-0.024314525944646448,-0.004748344053950859,-0.026382187570561655
-0.023965259970282204,-0.005530744147108635,-0.026780853659147397
-0.02235537613159977,-0.004408088898344431,-0.028657646907959133
-0.02174786823161412,-0.0037507979868678376,-0.02975560346385464
-0.022455811631516553,-0.004186094429314835,-0.02790512007777579
-0.02291746932314709,-0.0036861981698166346,-0.02540657987992745
-0.023010745280771516,-0.0026280620204488514,-0.025018167434609495
-0.023140972189139575,-0.0009100174338527722,-0.02403515281912405
-0.022318545234156772,-0.0010290929139955551,-0.02226740980404429
-0.021710104192607105,-0.0019634767340903636,-0.020417410269146785
-0.022462312699644826,-0.0030303353923955,-0.02041347215708811
-0.02336916804779321,-0.004300070486351615,-0.02291864439030178
-0.02468632737873122,-0.005306738785293419,-0.024792589101707563
-0.024723305614315905,-0.004196840563963633,-0.02479752220096998
-0.023708540538791567,-0.003502205800032243,-0.024755468984949403
-0.022981328584137373,-0.004240685484546702,-0.0250014982157154
-0.022904061552253552,-0.0036816263673244976,-0.024807006411720067
-0.022578140487894416,-0.0034312133720959537,-0.025489009203738533
-0.023025339032756165,-0.004298737167118816,-0.026378975235274993
-0.023008882635622285,-0.0038283378671621904,-0.025230068786186166
-0.0214589417737443,-0.0032176237709791167,-0.024084996766760014
-0.020965349904145114,-0.0048696360863687005,-0.02382769889663905
-0.02197510730184149,-0.005435260845843004,-0.022324584278976545
-0.021592615667032078,-0.00415603062720038,-0.022242815248318948
-0.02147677878383547,-0.003926549197785789,-0.023097845769370906
-0.02237165972474031,-0.004550370704237139,-0.023840932044549845
-0.023836870241211727,-0.005176115337235387,-0.02345065695408266
-0.024513323296559975,-0.004134467417316046,-0.023911992684588768
-0.024003473299671896,-0.003006864062626846,-0.025466619263170287
-0.02365465297771152,-0.003258461447330774,-0.0252805639320286
-0.02367878914810717,-0.004631039701052941,-0.02334771488676779
-0.0236547439271817,-0.005709020570066059,-0.021159949028515257
-0.02422352190478705,-0.005184697783988668,-0.022698319298797287
-0.02611100899230223,-0.004596474354912061,-0.026577481548883952
-0.027012749342247844,-0.00371879127669672,-0.028004984415019862
-0.025635350539232604,-0.0028990589271415956,-0.024614146241219714
-0.024611770641058683,-0.004034052381030051,-0.023036613129079342
-0.024054314053501002,-0.005050500476500019,-0.023542597773484886
-0.024693981686141342,-0.0022469405394076603,-0.024638047761982307
-0.025724899387569167,-0.001065115498022351,-0.025508026737952605
-0.02606457201181911,-0.0025840572561719455,-0.026589157641865313
-0.02634050906635821,-0.0030339224394992925,-0.026204153982689604
-0.025249695681850426,-0.003590743290260434,-0.02531054815335665
-0.023062511900207028,-0.005465395588544197,-0.025008193915709853
-0.02151098487956915,-0.006441709956561681,-0.025481367629254237
-0.022176751372171566,-0.005250445155979833,-0.02711094930418767
-0.022079966583987698,-0.0045746282921754755,-0.027673959266394377
-0.020423714886419475,-0.003919975824828725,-0.026298359443899244
-0.01998628067667596,-0.0035167877285857685,-0.026517256628721952
-0.020642915842472576,-0.00412715462516644,-0.02505581869627349
-0.020654231775552034,-0.002989382892337744,-0.021199326511123218
-0.019553235688363202,-0.002297563241882017,-0.021142441255506128
-0.01936374610522762,-0.004395375071908347,-0.023644355678698048
-0.019768282072618604,-0.00503264891449362,-0.02400474841124378
-0.020172015865682624,-0.0026670693387131905,-0.025040224500116892
-0.019790059013757855,-0.0006608215130654571,-0.0280871336144628
-0.019252682250225917,-0.0006571335688931867,-0.029213197194621898
-0.019847477233270183,-0.00368825021723751,-0.02630715425766539
-0.02205607779615093,-0.0068917893258912954,-0.0237658077821834
-0.022923924916540273,-0.007695345630054362,-0.022788439309806563
-0.022855720089864917,-0.005783995220554061,-0.02161556221835781
-0.022496096789836884,-0.004571638328343397,-0.021806905351695605
-0.021156465663807467,-0.00452353697255603,-0.02270670847792644
-0.021079635189380497,-0.004422583970153937,-0.023962695195223205
-0.02193603722844273,-0.004863296453549992,-0.023484630219172686
-0.0211237020266708,-0.004871896180702606,-0.0224419854930602
-0.020096862499485724,-0.004640540737455012,-0.021934431060799398
-0.02205627788498532,-0.0036564708807418356,-0.022084996089688502
-0.02367915294598788,-0.002849468273780076,-0.02183036122005433
-0.022911444830242544,-0.003786019988183398,-0.022021044060238637
-0.023282907932298258,-0.005686581971531268,-0.021695679606636986
-0.025000845198519528,-0.005795090146420989,-0.02237130502180662
-0.025395880584255792,-0.0037125150811334606,-0.024654389562783763
-0.0241929228650406,-0.0034748461530398345,-0.02560327084211167
-0.02463078999426216,-0.00414404712500982,-0.025683642888907343
-0.026505756977712736,-0.0033626140520937042,-0.025678273232188076
-0.02739511546678841,-0.003258556489527109,-0.026055018679471686
-0.027782132747233845,-0.004445170361577766,-0.02664104977156967
-0.027930818760069087,-0.006017227406118764,-0.027471352950669825
-0.025901137632899918,-0.006253427272895351,-0.027811851396108977
-0.025221090254490264,-0.005164821232028771,-0.02757313268375583
-0.027177102310815826,-0.005130034423928009,-0.027060821594204754
-0.02957101969514042,-0.006650498562521534,-0.027296460757497698
-0.029115903089405037,-0.006894538273627404,-0.02796054832288064
-0.026589363187667914,-0.0070982960096444,-0.02825527189997956
-0.02468083766871132,-0.007019996701274067,-0.027374864657758735
-0.024617387680336833,-0.004695509232988115,-0.025387653295183554
-0.024073540771496482,-0.003601930984586943,-0.02500600203347858
-0.02304040754097514,-0.002395904630247969,-0.025334958991152234
-0.022455331418314017,-0.001505533987256058,-0.026036483177449554
-0.02173551547457464,-0.0013981191386847058,-0.026653191525838338
-0.02256082370877266,-0.001628393533792405,-0.02622731335577555
-0.02367400156799704,-0.00024234611828433117,-0.025380451916134916
-0.023492355467169546,0.000729533780940983,-0.0242825935856672
-0.022830563466413878,-0.0005131114448886365,-0.023631679141544737
-0.02215577296738047,-0.001831322265388735,-0.022927650206838734
-0.022366948542185128,-0.002554705361035303,-0.0228643293667119
-0.02296850288985297,-0.0030630012588517275,-0.02326772482774686
-0.02375874828430824,-0.0026023042209999403,-0.02344953281863127
-0.02451653199386783,-0.002217114115410368,-0.023628370399819687
-0.024396504159085453,-0.00261164564108185,-0.023382826839224435
-0.02309151750523597,-0.0017559063962835353,-0.022710126359015703
-0.020993091311538592,-0.0008402317916988977,-0.02282623427163344
-0.02046159715973772,-0.0015687780887674307,-0.02233968916698359
-0.02298856634297408,-0.0025241190542146796,-0.022685950170853175
-0.026246250854455866,-0.0035948201002611313,-0.023946146029629745
-0.027503898309078068,-0.0033688086205074796,-0.024534960175515153
-0.026770345357363112,-0.0015002203781477874,-0.025009740056702867
-0.02598728497105185,-0.0005613852067654079,-0.024786413632682525
-0.02559375570854172,-0.0015295869388864958,-0.025113233277807012
-0.025290699340985157,-0.0026806287678482477,-0.026473027901374735
-0.02500306254660245,-0.003018588813574752,-0.027025143936043605
-0.025511273634037934,-0.0024049002149695298,-0.02504110489098821
-0.02581204353191424,-0.0016328075389537844,-0.02378953286097385
-0.025705696316435933,-0.0024048856630543014,-0.025748988264240324
-0.0250310458795866,-0.0025181857381539885,-0.027309883080306463
-0.024672463041497394,-0.0021953969735477585,-0.02629411574162077
-0.02470614344929345,-0.0027197590952710016,-0.024676561224623583
-0.026598223485052586,-0.00445338537247153,-0.02460917858115863
-0.02760673305601813,-0.005043184046371607,-0.02395173578406684
-0.027250353014096618,-0.0055355480981233995,-0.022603937395615503
-0.026340805561630987,-0.004861414709012024,-0.02386030428169761
-0.024865486921044067,-0.0032145749173650984,-0.027796193535323255
-0.024056553229456767,-0.0026128436729777604,-0.028449347155401483
-0.024679333364474587,-0.003209728447473026,-0.02642695289978292
-0.026470026568858884,-0.004233566414768575,-0.024978211513371207
-0.02520788439142052,-0.0059608769333863165,-0.025449162421864457
-0.022528227418661118,-0.00638361325400183,-0.026542375053395517
-0.021229812773526646,-0.004670422640629113,-0.025136057956842706
-0.021811778424307704,-0.0028591086902451934,-0.024506418412784114
-0.020225468688295223,-0.0030521416647388833,-0.024901761207729578
-0.019204595446353778,-0.0035292980555823306,-0.025828459911281243
-0.021207788449828513,-0.0036318735965323867,-0.026388968763058074
-0.02340000355616212,-0.0037839263313799165,-0.02510256126697641
-0.023392707589664496,-0.003063582653339836,-0.025431079848203808
-0.022019226889824495,-0.0034498266359150875,-0.027396114091970958
-0.02200707604060881,-0.005060389867139747,-0.026128107492695563
-0.021820971596753225,-0.006075631517887814,-0.021832289348822087
-0.021380277757998556,-0.00598505585003295,-0.018966777133755386
-0.022052585336496122,-0.005133757440489717,-0.01821805562940426
-0.023014124963083304,-0.004591319793689763,-0.01989542397495825
-0.022264717699727044,-0.0057236097745771986,-0.022249996618484147
-0.02232079168607015,-0.006519944690808188,-0.022329153580358252
-0.022574722606805153,-0.005148072887095623,-0.020294313799240626
-0.020323137505329214,-0.0035431878586678067,-0.01970588527910877
-0.018835324226529337,-0.00366136714546883,-0.02059299913526047
-0.018695121980272233,-0.0033523174352012575,-0.022071873900131322
-0.020629568098229356,-0.0024081227820715867,-0.022666901713819243
-0.023286329451366328,-0.0019206970591767458,-0.022113756131147966
-0.024985083655337803,-0.003561801804607967,-0.021585226932074875
-0.025355770048918203,-0.0057232537074014544,-0.022239319150685333
-0.02491375016688835,-0.006755476533726323,-0.024370563551201485
-0.024801198378554545,-0.006412825769075425,-0.024702174414414912
-0.02444224082864821,-0.006077721536712488,-0.022949399863136932
-0.024346356440219097,-0.005617720489681233,-0.023338016035268083
-0.025568200726411305,-0.0055352079471049365,-0.024748182113398798
-0.027031022909795865,-0.005208546554058557,-0.025671117327874526
-0.028353762900223956,-0.0043251288843748625,-0.027003274226444773
-0.028205866328789853,-0.0037155425616219873,-0.026437224732944742
-0.02707088970055338,-0.0029270102004375076,-0.02505470547475852
-0.026896495910477825,-0.003337720045237802,-0.025862391339614987
-0.02697653508221265,-0.0041251832954003476,-0.027655572921503335
-0.02562183180998545,-0.00531305931872339,-0.028081007258151658
-0.024748909709160216,-0.005874545877304627,-0.028891210604342632
-0.02495231819921173,-0.005478707862494048,-0.02956723255920224
-0.025889676180668175,-0.004979679943062365,-0.03015985021193046
-0.027479894924908876,-0.004744154466607142,-0.030005365260876715
-0.027444229999673553,-0.004426646682986757,-0.02892663178499788
-0.025733741495059803,-0.0042153915273956954,-0.027507570848683827
-0.024049755666055717,-0.004839638222620124,-0.02703918107727077
-0.02352215778955724,-0.005700296696886653,-0.026339706892031245
-0.023878212232375517,-0.005540003712667385,-0.02605532790767029
-0.024286664483952336,-0.005600004897132749,-0.026040124794235453
-0.023732896806905046,-0.0056580506679893006,-0.02433413828839548
-0.022561038349522278,-0.004535675543593243,-0.023493848857469857
-0.021302477762219496,-0.003116568905170425,-0.024723613023525104
-0.02001860411837697,-0.0013914078635934857,-0.02593077442725189
-0.018103439288097434,0.0005752195306740759,-0.02446118014631793
-0.016455429431516677,0.000754373559175292,-0.021956248019705527
-0.016170621165656485,-0.000909130108084355,-0.02127089464920573
-0.017982391000259668,-0.0024230398594227154,-0.022873031412018463
-0.020023951947223395,-0.002116330961143831,-0.024905983082135208
-0.020320851035648957,-0.002321536385352374,-0.025948007532861084
-0.01896142930490896,-0.004860642548010219,-0.025187035134877078
-0.018458598788129166,-0.004787950729223667,-0.023019405489321798
-0.018263866877532564,-0.003565948418327025,-0.023404902094625868
-0.018618009562487714,-0.0032302705221809447,-0.02349921669519972
-0.021089916117489338,-0.004918955255561741,-0.02232847509731073
-0.023498394511989318,-0.00532448348167236,-0.022567055566469207
-0.0238832308241399,-0.003095715328527149,-0.022702008209307678
-0.021953783289063722,-0.0008239371709350962,-0.02214705091319047
-0.019644974599941634,-0.0009534077207717928,-0.021496474801097065
-0.019867078663082793,-0.002410102524663671,-0.02069907532131765
-0.022036567315808497,-0.0025996691874752287,-0.021595291400444694
-0.024441607820335776,-0.001978394720936194,-0.023622389562660828
-0.024390294129261747,-0.0027306498395773815,-0.02549385499150958
-0.023376313038170338,-0.0035077453048870666,-0.024392949853790924
-0.023471860913559794,-0.002278710326208966,-0.024320937882293947
-0.023117108867154457,-0.0005508034064405365,-0.02404562837909907
-0.023927052097860724,-0.0009518911952000053,-0.024826382286846638
-0.02368101922911592,-0.0017367741520502022,-0.02763051634246949
-0.0236525393120246,-0.002060185806840309,-0.029257511414471082
-0.023136053641792387,-0.0012504782489486388,-0.02877058068406768
-0.02198897345806472,-0.0011494639693410136,-0.027959591534454376
-0.021294155885698274,-0.0022651922790828394,-0.02660318568814546
-0.020967847376596183,-0.0028424344691302394,-0.025843501134659164
-0.02146492261090316,-0.0026291702397429617,-0.026677435016608797
-0.022940639610169455,-0.002506189730411279,-0.026370429623057134
-0.024486012989655137,-0.003953250143240439,-0.026612951842253096
-0.024352415493922308,-0.005272966518532485,-0.027926467737415805
-0.024683098672539927,-0.004546180662146071,-0.027700927603291348
-0.02543852860981133,-0.0042576675696182065,-0.027231231797486544
-0.02446646431053523,-0.005460302418214269,-0.025270112018915825
-0.023114975192584097,-0.006793351985834306,-0.02263989154016599
-0.023105800210032612,-0.005867628260602942,-0.02258634594909381
-0.02375253097852692,-0.0036899732549500186,-0.02473831773386337
-0.02444227175146807,-0.003831652520602802,-0.02572430639702361
-0.024327699065906927,-0.006495586603705306,-0.023780572519171983
-0.02533911174396053,-0.008100813829514664,-0.020842069716309197
-0.026676209017750807,-0.0070966889325063676,-0.019577491912059486
-0.02678646160347853,-0.004328520844865125,-0.020094954379601404
-0.025859813831630163,-0.0007835813562451222,-0.021940604710835032
-0.02539209344831761,-0.0001763414019251286,-0.022927044483367354
-0.024370059691136703,-0.0001593537319877214,-0.022505890228785574
-0.024640810806886293,-0.00016396560909015534,-0.021672953153029084
-0.023536462322226726,2.6489423987641203e-05,-0.02201617280661594
-0.022371970771928318,-0.0016112827552206,-0.022332033040584065
-0.021948184439679608,-0.004252533926774049,-0.022792652089265175
-0.02321668762306217,-0.006325960839603795,-0.024954679247457534
-0.02595810656202957,-0.005253777544567129,-0.025967885449063033
-0.02728197978285607,-0.003463132770775701,-0.024139511879184283
-0.025981315047829412,-0.0036664505387307145,-0.02298732943017967
-0.02501151720935013,-0.005043681085226126,-0.02405579471087549
-0.02594863690319471,-0.0049468103497929405,-0.02584404319350142
-0.02635648888826836,-0.0044424327825254295,-0.026881229132413864
-0.02634820521052461,-0.003363832320246729,-0.025877301595755853
-0.02496340857760515,-0.0017962435094887041,-0.023207800040836446
-0.022659278329228982,-0.0016730861034375266,-0.02314989069418516
-0.02319863051525317,-0.004562808953778585,-0.025231878680642694
-0.023617176339030266,-0.004717983301816275,-0.025866294890874997
-0.023406328182318248,-0.0025581641693861457,-0.025986189939430915
-0.023615479221916758,-0.0013631831734528532,-0.02623875843710266
-0.023191327272797935,-0.0013164102483642637,-0.02775273605948314
-0.022509988411911763,-0.0027371802389097866,-0.02914246761065442
-0.023018566935206763,-0.0050737953642965294,-0.029540955438278615
-0.02287328061356675,-0.006805280463595409,-0.029170514608267695
-0.020540857804007828,-0.007106363227649126,-0.02837395186361391
-0.018520362573326565,-0.007296765488717938,-0.026291305402992293
-0.018264518075739034,-0.007522814485128038,-0.02459261304466054
-0.01888977385533508,-0.008146725122060161,-0.024333408873644657
-0.018325339624425396,-0.008549558515369426,-0.024986697098938748
-0.018451770301908255,-0.007047903636703268,-0.026586198146105744
-0.01830162000260316,-0.006896656941535184,-0.02836777457559947
-0.01835146758821793,-0.007145684321585577,-0.025975514290621504
-0.01906975194287952,-0.007548816029157024,-0.020807226974284276
-0.020412817320902832,-0.007334679139603395,-0.019742052245419472
-0.02024470995820593,-0.006674139513052069,-0.021058545826235786
-0.01930936923599802,-0.006140521236375207,-0.02076202326861676
-0.01915981192723848,-0.006428354936360847,-0.019347302441019565
-0.02003249574045185,-0.006675291388091864,-0.020224217223585583
-0.021073874449939467,-0.005600789336313028,-0.021341858882806264
-0.02300037886016071,-0.0022149833966977894,-0.022257885575527325
-0.025361612642882392,0.0010886392374231946,-0.022500920749735087
-0.0259852586168563,-3.957003258392433e-05,-0.021244513845886104
-0.025688670575618744,-0.002845893277481082,-0.02115331699314993
-0.024527880668756552,-0.0034305016924918164,-0.02370169931964483
-0.025041477783815935,-0.002008703631872777,-0.02439980562485289
-0.026104666176252067,-0.0013447561286739074,-0.024957995265140198
-0.025706442102091387,-0.002808184035529848,-0.026719913876149803
-0.025339873900520615,-0.0030964333745941985,-0.028600439691217616
-0.025053379431483336,-0.0016775727544882102,-0.0284564866888104
-0.025188926883856766,-0.001016916712615057,-0.026642797820386477
-0.02608224531286396,-0.002161316615456599,-0.02460312498442363
-0.02567914816609118,-0.0026359739422332495,-0.025047309463843703
-0.024976898203021847,-0.0018928058125311509,-0.02569648131611757
-0.025110008209594525,-0.000184339185693716,-0.024303428290295415
-0.026222418455290608,0.00017664379470261338,-0.023121954654925503
-0.027799913368653506,-0.0011286373364782776,-0.02362507257203106
-0.027615969884209335,-0.001846203304012306,-0.025745002858457156
-0.025235234716092236,-0.0021498362912097946,-0.02727043829509057
-0.024123204639181495,-0.0031798183499631705,-0.027856327506015077
-0.022861131583340466,-0.0028516728889371734,-0.026841817089007236
-0.022267859094426967,-0.0017283857687289128,-0.02591637894511223
-0.023778804461471736,-0.0016537612737010932,-0.024388713427470066
-0.026063031327794306,-0.0020002073597424896,-0.023346907255472615
-0.02665167448867578,-0.0020032907741551753,-0.023525808501290157
-0.02530009442125447,-0.0008920212053453724,-0.02373842835368123
-0.023730772227281705,1.1780926456594898e-05,-0.024128084987751208
-0.022550711946678348,-8.59864499602736e-05,-0.02616857091197744
-0.021467551050591283,-0.0004595349025748874,-0.027252786821918562
-0.021625512090395205,-0.001890697262751928,-0.027211348424316384
-0.02299192601640243,-0.0028610513709281804,-0.026682870156946592
-0.023976939701242372,-0.0029078016723360633,-0.024154749553417787
-0.023916316422400996,-0.0037962925034662476,-0.021721589291701093
-0.025932808057405055,-0.004469088707992341,-0.022494168661069125
-0.027981941457255743,-0.0046252034735516645,-0.023758664610795677
-0.027057738407165743,-0.0034055042306135874,-0.024008952095755376
-0.02568366653576959,-0.0025782733246160205,-0.02362452505622059
-0.025764871679712087,-0.0031944666716299253,-0.02299661355209537
-0.02416755523881875,-0.0032333705348719377,-0.02291979944857303
-0.022433227059082128,-0.00334957940140157,-0.02344792846997734
-0.02240752291982062,-0.0037791323848068714,-0.022670310499961488
-0.022897293092682958,-0.0046718373596377205,-0.020011602828162722
-0.022999765860731713,-0.005916198460909072,-0.01871714812295977
-0.02427869003440719,-0.00635985679764417,-0.018638949768501334
-0.024979130103019997,-0.005597861672868021,-0.019317061742185615
-0.023943808628246188,-0.007034653663140489,-0.020241828678990714
-0.023317681552725844,-0.008061364496825263,-0.022989815988694318
-0.02235985994047951,-0.006194840807438595,-0.02671557194844354
-0.022436945073422976,-0.0056562644203950185,-0.028468559321481735
-0.02332626718271058,-0.007354406534432201,-0.026816587705980055
-0.02397970274614636,-0.009372498425364029,-0.023390610294882208
-0.02485458207956981,-0.009395458619110286,-0.02166223384847399
-0.025014674974954687,-0.006945707355043851,-0.022695445295539685
-0.02500440132280346,-0.00468866846858873,-0.024753926481935196
-0.024624625439173542,-0.0029029595225438243,-0.024687287805136293
-0.02350294016650878,-0.0025071303753065877,-0.022803131287219003
-0.023024378606351092,-0.00407606057706289,-0.021396719603217207
-0.023325603251578286,-0.005194582627154887,-0.022160118533065543
-0.02367080560361501,-0.006549291811097646,-0.02342132393096108
-0.02386079722782597,-0.006666821718681604,-0.025049326723092236
-0.02508402212697547,-0.007571753485535737,-0.027848995159729384
-0.025492849090369418,-0.008222086762543768,-0.029474180337274447
-0.025539371563354507,-0.007979445399541873,-0.02726175262068864
-0.02449021121719852,-0.007551499493274605,-0.026744270144263282
-0.02357439552724827,-0.007901594472059514,-0.026502269975026138
-0.023925473215058446,-0.0080249610618921,-0.02443290395603981
-0.025118924895650707,-0.007778714461892378,-0.0227706568693975
-0.025266315788030624,-0.007100520633684937,-0.022369969883584417
-0.02490346014383249,-0.005655706900142832,-0.023411317670252174
-0.025585257390048355,-0.004030300715385238,-0.023969596441020258
-0.0266488113993546,-0.0030544206310878508,-0.024319830117747188
-0.026491650714888237,-0.004201921001367737,-0.02329140443180222
-0.025681720217107795,-0.00438869710706058,-0.0219463854591595
-0.02552535261202138,-0.0031881181712378748,-0.02150350519514177
-0.024714656319702044,-0.00349348078998446,-0.0210264915949665
-0.024670467610121705,-0.004416540377860656,-0.02187722930102609
-0.02541396315791644,-0.004126293333683861,-0.0223212773562409
-0.02430503627692815,-0.0029592745249829022,-0.021843661670573056
-0.022625063138548285,-0.002445063273626147,-0.020757233869517222
-0.02253294769616332,-0.003357551804583636,-0.02094317642331589
-0.021720456061302684,-0.004099350917385891,-0.023433418391505256
-0.02014261917793192,-0.002893137207138352,-0.024993994884425774
-0.01937970591825433,4.6304922562967477e-05,-0.0228952121688053
-0.019300516214570962,0.0008208427857425704,-0.021868747353437357
-0.01930481994349975,-0.0008388737455788942,-0.023660801161895506
-0.019424318452365696,-0.0007158289463404799,-0.025393768737558275
-0.021175590518396348,0.000833827016322175,-0.025990551876020618
-0.022175134290591814,0.0003988433832091687,-0.025924835426849313
-0.02135714930773247,-0.0019185988548997557,-0.026627767510944977
-0.021016827304265462,-0.004430734861671226,-0.027942676751990803
-0.022245947548071854,-0.005783850610896479,-0.02881170075852424
-0.022648953745374456,-0.005351950676413253,-0.029547050871769898
-0.021432031644508243,-0.004077681296621449,-0.02832249811035581
-0.02159263203793671,-0.003521350436130888,-0.025351686417707242
-0.02174297333112918,-0.004271209036232904,-0.024583525373600423
-0.022058133254176937,-0.004802929652214516,-0.024949124053819105
-0.02409207991149742,-0.00397833082388388,-0.025601924789953046
-0.025950428607757203,-0.002567387355156825,-0.02632886571518611
-0.025240327886422165,-0.003050432269446901,-0.025985591491917148
-0.0222545895667281,-0.003896333510056138,-0.02516204403946176
-0.021587884475593455,-0.0040107315726345405,-0.02525453601265326
-0.02127710649801884,-0.0034515655897848774,-0.026438139684614725
-0.02120149838447105,-0.004414697286847513,-0.026576824893709272
-0.02023017077590339,-0.004871139935858082,-0.026897341740550473
-0.017342625142191537,-0.005266521839075722,-0.027532974854693748
-0.015575491488561966,-0.005896027687413152,-0.02773208871076349
-0.01590422289154958,-0.0045657843656954356,-0.02824047078320291
-0.01698976120678708,-0.002634831844261498,-0.02754426168394275
-0.017417592971469276,-0.0016586081983405165,-0.025758345145732164
-0.017030381059157662,-0.0006581358888979594,-0.025344079404021613
-0.01880745548987761,-0.00034397862691548653,-0.02642987783474382
-0.022654157874058,-0.0008414046419602528,-0.02735885209403932
-0.024671073333593085,-0.0025086794721573824,-0.027161917387275025
-0.024651806597830728,-0.0023782065454724943,-0.02453398337820545
-0.024689505153219216,-0.0010587315273369313,-0.023735281502013095
-0.024949276848929003,0.0004928007797389,-0.0245026658376446
-0.024066344849416055,1.8990320427292318e-05,-0.02579707324912306
-0.02468816819600761,-0.0012943022511535673,-0.026172478101216257
-0.025520235794829205,-0.002356647428314318,-0.02643165862536989
-0.024985909476527013,-0.0026652096494217403,-0.02632936775626149
-0.025398263460374437,-0.0018389580418443074,-0.026176991013926454
-0.028202486646478064,-0.0017670515717327362,-0.026315728973713703
-0.028634518457693048,-0.003200299261152395,-0.02661771395651158
-0.028379274226608686,-0.004131592959311092,-0.025804325559874997
-0.02724569640122354,-0.002898208094848087,-0.025026101866387762
-0.02702639721974265,-0.002177586111429264,-0.025011679099407047
-0.02736784517765045,-0.0019139808955515036,-0.02485263394191861
-0.02710337685130071,-0.002707993417061516,-0.024985603886307217
-0.02607182614156045,-0.0037343913845688803,-0.024575132556492463
-0.026450927180121653,-0.004313837507652352,-0.023341561245615594
-0.02703470272535924,-0.00391856247006217,-0.022726255338056944
-0.026368896214989945,-0.0029672187338292133,-0.024382830815739
-0.025320601707790047,-0.002251419800813892,-0.026250258088111877
-0.025840125090326183,-0.0027138257792103104,-0.026335936126997694
-0.026718022127170116,-0.004428211468621157,-0.02589187351986766
-0.026193878511548974,-0.005173504632693948,-0.02572555240476504
-0.024460263375658542,-0.0034869312912633177,-0.024534660042263567
-0.023845463147154078,-0.002262313728351728,-0.02496043816790916
-0.024350136300199665,-0.004182604243396781,-0.02768332342384383
-0.024289027351187542,-0.0067482146732800175,-0.030331897505675443
-0.023873049940448254,-0.004816417913389159,-0.029265218472573906
-0.0242111855186522,-0.003599710225898889,-0.026323577912990004
-0.025219458620995283,-0.0037600980249408167,-0.025501702111796476
-0.025296567400800996,-0.0030315031835925765,-0.027059770218329504
-0.024539187506888993,-0.0019586063899623696,-0.027248051992501132
-0.024497749109286815,-0.0015926289052003995,-0.025996350814239122
-0.024687591576366685,-0.0014107199604040943,-0.025145234758383594
-0.02532877078920137,-0.0019007653691005544,-0.025456887669861317
-0.02631509050843306,-0.0031729709917271975,-0.02555647552071605
-0.02459994902892504,-0.0037995662296452792,-0.023606469767400995
-0.021057223420939408,-0.0035618759284261614,-0.02241399670310784
-0.02127088919223752,-0.0032033333354775095,-0.024903012672439218
-0.02366566150158178,-0.001528164489172923,-0.025412429749849252
-0.02328389928152319,-0.0020628629044949776,-0.02251727164548356
-0.023068301743478514,-0.003922328232874861,-0.021253070372040384
-0.024099248548736796,-0.00419551042796229,-0.021330553863663226
-0.02658109224284999,-0.003806874701695051,-0.02309873525518924
-0.02647211294970475,-0.0025455224204051774,-0.02481206502125133
-0.02504486110410653,-0.0019267433799541323,-0.02436342037981376
-0.02451629552524537,-0.0015499392702622572,-0.02292620592925232
-0.02531305290176533,-0.0004377048696824204,-0.021899992134422064
-0.025439028831897303,-0.0005874442763342813,-0.02118422526109498
-0.024441205823677592,-0.0020114530343562365,-0.01941770824487321
-0.02430396489216946,-0.003063255917368224,-0.018396040104562417
-0.025276000087615103,-0.0034996958220290253,-0.019842800611513667
-0.025673893105704337,-0.0035250325254310155,-0.021652029317920096
-0.024635462978039868,-0.0032150478546100203,-0.02186360870837234
-0.02404319093329832,-0.003473019660304999,-0.020118281099712476
-0.024568815206293948,-0.0030437620353040984,-0.019261438865214586
-0.025731396817718633,-0.0027142150429426692,-0.021498059140867554
-0.026695828637457453,-0.0036849105526925996,-0.0253224243351724
-0.025342951630591415,-0.0040842810449248645,-0.02717568895604927
-0.02246243820991367,-0.002920411816376145,-0.02657585901033599
-0.021109255612827837,-0.0029418001759040635,-0.02396988020336721
-0.02154756657546386,-0.003917346930393251,-0.02131680230377242
-0.022926764358999208,-0.00345131297763146,-0.02163881072192453
-0.02524891715438571,-0.002371866912653786,-0.023350221454165876
-0.024635883164592087,-0.0018823430991687928,-0.02307674913026858
-0.02257554660900496,-0.0031355225473816972,-0.022023090423317626
-0.02164716897823382,-0.0055330888244498055,-0.023043317924020812
-0.021880810891161673,-0.005489187060447875,-0.02444607343932148
-0.023902599423308857,-0.0050002972784568556,-0.025624085537856445
-0.02467112244630698,-0.005045591933594551,-0.027328485884936526
-0.023271080863196403,-0.005421693913376657,-0.028646909413510002
-0.02277143175888341,-0.004664800599130103,-0.027240270355832763
-0.023235957996803336,-0.003372406354174018,-0.024864872102625668
-0.02278151805512607,-0.002858762172763818,-0.024521532395738177
-0.022000087483320385,-0.003058662741750595,-0.024886785467970185
-0.021710331566282548,-0.003194712235199404,-0.02453695924486965
-0.021124666091054678,-0.003443640252953628,-0.023948989110067487
-0.020987445168429986,-0.004243051535013365,-0.024829376343404874
-0.020355759261292405,-0.0035864127312379424,-0.02501485687389504
-0.020313695131335407,-0.0015197049378912197,-0.02433562622172758
-0.020652527382480912,-0.0016750003624110832,-0.022668991732643917
-0.0207437315111747,-0.0042327301343902946,-0.022699907276546583
-0.02034364479186479,-0.006778929673600942,-0.02344933818676509
-0.020430959921213798,-0.008030184289964382,-0.02564066744525917
-0.020430979930097237,-0.006745841801603092,-0.02689102984732017
-0.020796293028979562,-0.005450282515084837,-0.025378465579706244
-0.01993862861127127,-0.006054241566744167,-0.02391924681433011
-0.01837473791965749,-0.006253881565498887,-0.02405399391136598
-0.01907139267132152,-0.005257219527265988,-0.025573406674084254
-0.020386465621413663,-0.003880664280586643,-0.025434699637116864
-0.01982503817998804,-0.0032462105536978925,-0.022866690414957702
-0.01859884650912136,-0.0031944323382049333,-0.022906233425601386
-0.0184590771823423,-0.0035058303637924837,-0.02655080970725976
-0.020318915630923584,-0.004868591076956363,-0.028012866096105427
-0.02059166035905946,-0.004736682512884727,-0.027627620511339046
-0.020172568838461302,-0.003728282990778098,-0.026771494958666153
-0.020699648302979767,-0.003855503109662095,-0.025688934329082258
-0.022541949874721467,-0.0037540719404205447,-0.025561561415088363
-0.02413844777038321,-0.0035203627248847624,-0.025217352231265977
-0.023613729354110546,-0.00393168465961935,-0.025082024876610376
-0.022456295482697897,-0.00547397939953953,-0.02518528708606027
-0.022260797777562402,-0.0063836341723799706,-0.02443280209263321
-0.023265720301424153,-0.006255326297832653,-0.023538443201687187
-0.024838405806804076,-0.006215405846887734,-0.02332346048206091
-0.02646083703439217,-0.005920692274230532,-0.02504732401575893
-0.027000063710147515,-0.005878646788914921,-0.027665253583109006
-0.025016470317495987,-0.006372329153236933,-0.027037542167818174
-0.022767631890019402,-0.00729426301404601,-0.024644976292620413
-0.022236774384509772,-0.008119624908431433,-0.024194767320295796
-0.023958220481290482,-0.007523881777160568,-0.023291642719414085
-0.02501213748473674,-0.007724702300038189,-0.023611552023794502
-0.024821225451887585,-0.008813302883936558,-0.025411703973077238
-0.02428619518468622,-0.008631343916931655,-0.026765190341393463
-0.024866380044841208,-0.007028730124147842,-0.027373038392397575
-0.026476443963474594,-0.005213069016463123,-0.028559379643411376
-0.027133162802783772,-0.004983146482118173,-0.027252794097876176
-0.026822317522601224,-0.005446480827231426,-0.025607776478864253
-0.028046913939760998,-0.004590688149619382,-0.025889727112371475
-0.02956267780973576,-0.003018717734448728,-0.026613002773956396
-0.02922325802501291,-0.0018908314132204396,-0.026044301193905994
-0.02714532456593588,-0.0015298035123123555,-0.02399558616161812
-0.02578869134595152,-0.002333634711249033,-0.023736842194921337
-0.0267503837676486,-0.0034556758237158647,-0.023968672394403256
-0.026849082132684998,-0.0031538529583485797,-0.02193714681197889
-0.026020605218946002,-0.002623579803184839,-0.020645866243285127
-0.025003528207889758,-0.001174526573777257,-0.020310761101427488
-0.024105376724037342,0.0003229257288239751,-0.019986784536740743
-0.024036557078943588,0.0005526793529497809,-0.020011002561659552
-0.025708322937134653,-0.0003933723746740725,-0.021466606995090842
-0.027579253583098762,-0.0008481007398586371,-0.022629501472692937
-0.026342739147366956,-0.002130602524630376,-0.022695698135066777
-0.024560191377531737,-0.004523820280155633,-0.02266107730974909
-0.024805118300719187,-0.005635820343741216,-0.022503409127239138
-0.026010953661170788,-0.005046795649832347,-0.022659864043816924
-0.025650802854215726,-0.0034207196222268976,-0.02376142583671026
-0.02509787918825168,-0.0021669695797754684,-0.025157829441013746
-0.02460617179167457,-0.002265078137497767,-0.02586539812909905
-0.024332319298991933,-0.0038889452298462857,-0.02505225893401075
-0.02397245043539442,-0.00627168901701225,-0.024397520974162035
-0.02310349555045832,-0.006966918135731248,-0.02450836473144591
-0.02257233063573949,-0.005596314167632954,-0.024416913220193237
-0.02281434353790246,-0.004943564817949664,-0.023746186343487352
-0.024840304831741378,-0.004860413355345372,-0.024107954232022166
-0.02716477138164919,-0.003884196758008329,-0.025872835976770148
-0.02851832687156275,-0.002425456841592677,-0.026895968403550796
-0.027658759790938348,-0.0030797868930676486,-0.027026662792195566
-0.02285871778440196,-0.0047958701543393545,-0.025893976271618158
-0.019273693396826275,-0.004158721367275575,-0.024726721676415764
-0.01882372089312412,-0.002995177055709064,-0.026286767024430446
-0.020421555745997466,-0.004446389539225493,-0.02853481055353768
-0.021338088117772713,-0.0055330847317236476,-0.02792716259136796
-0.02247828888357617,-0.00587923614148167,-0.026078188966494054
-0.022567148334928788,-0.006811315870436374,-0.02604839210107457
-0.021259278582874686,-0.006097368441260187,-0.02651762952154968
-0.019764267563004978,-0.0027254593533143634,-0.026312160116503946
-0.0195010634342907,-0.0002747849805473379,-0.02602074710011948
-0.020591805878211744,-0.0014733745956618804,-0.026483032343094237
-0.020581017452059314,-0.002971599087686627,-0.027083331588073634
-0.019489723854348995,-0.0028972162908758037,-0.028326621759333648
-0.0189808924915269,-0.0028595422918442637,-0.028078029572498053
-0.019312266886117868,-0.0025130616450042,-0.024677843612153083
-0.019918423276976682,-0.0036925002859788947,-0.021877662220504135
-0.021638978068949655,-0.003618599521360011,-0.02258077984151896
-0.022483247448690236,-0.003561821358744055,-0.022911297492100857
-0.022450769392889924,-0.004813090072275372,-0.021883741283090785
-0.022377695131581277,-0.004085902673978126,-0.021720486984122545
-0.022128264390630648,-0.0027950054573011585,-0.021145544451428577
-0.021298348656273447,-0.003734798610821599,-0.020316674635978416
-0.020691331883426756,-0.006053121978766285,-0.02069907532131765
-0.02069280708383303,-0.007332261702686083,-0.020319932446000166
-0.020449924704735167,-0.006311258857749635,-0.019469975086394697
-0.01948349927261006,-0.003423408315939014,-0.020399778804858215
-0.02005198984988965,-0.0006165032573335338,-0.021978725271765143
-0.021586962247965857,-0.0011406176554373815,-0.02457948721712455
-0.02143902202078607,-0.002923986357927788,-0.02764009332167916
-0.020006955310236663,-0.004863688900513807,-0.026480593078304082
-0.020591507563949563,-0.004716798684967216,-0.02618787402752787
-0.02194339867855888,-0.0041132639125862624,-0.02729562038439326
-0.022162761524668895,-0.004420951427164255,-0.027626942028291523
-0.02174705696234014,-0.004394320512801642,-0.026122168492292985
-0.021738365830969997,-0.003554030627128668,-0.024754104742896743
-0.021722215024055913,-0.0024804794520605356,-0.02479862087056972
-0.022078755137044936,-0.0022884989903104724,-0.026048257495858707
-0.022790021830587648,-0.003407525809961953,-0.028115131499362178
-0.022740849090041593,-0.004254156465322012,-0.028690074032056145
-0.02293818943144288,-0.0035072455375484424,-0.026293595510651357
-0.024240751372417435,-0.002892227712436579,-0.02381636295467615
-0.025004326744237915,-0.002852078523574164,-0.021673457013093866
-0.022853986592963338,-0.0027309931738273008,-0.0219041139644105
-0.023277903892449103,-0.0011546385394467507,-0.025897961677401327
-0.025166853447444737,-0.0011146070164613775,-0.02894507269957103
-0.02557167135819327,-0.0020086761196580483,-0.028226197173353285
-0.025727411411935464,-0.0030598012017435394,-0.026945404897560365
-0.02663778832356911,-0.0025620813630666817,-0.027021018468076363
-0.026341656848671846,-0.002523286184441531,-0.026134792278753594
-0.0244807615672471,-0.0032551790809520753,-0.02360878534091171
-0.02412240246485453,-0.004077084213349735,-0.021470517822308466
-0.026310388420824893,-0.004741595603263704,-0.02149266583728604
-0.027446478270576335,-0.004317797902331222,-0.024361805117223412
-0.02692015732463915,-0.0030107635211606976,-0.026816034733201377
-0.027027412215829827,-0.00043142304662069364,-0.025397035642527044
-0.0256270377576584,-0.00024072176074696472,-0.023003192836767994
-0.024366137949982658,-0.0021758412458439125,-0.022603600882575847
-0.02461991061863955,-0.0021262756035866914,-0.02206526551162824
-0.025012141122715548,-0.0018844507394533139,-0.020840680008404888
-0.023886335839051753,-0.001628996642466518,-0.021331072275643237
-0.022532654838869348,-1.8818433034084592e-05,-0.021630799892591313
-0.02247602242277935,0.0010092787761095678,-0.020281200704630464
-0.023225642507895827,-0.0006419317060135654,-0.01947120290424209
-0.025131959773716517,-0.002904696884797886,-0.021444910089485347
-0.02508627403585706,-0.003050264012927073,-0.02283044159412384
-0.022840771634946577,-0.0020762349777214695,-0.021580239263130352
-0.021904230379732326,-0.0021260088942653965,-0.020133027646807022
-0.02351410876144655,-0.00280719996226253,-0.019680273908306845
-0.026022231395472772,-0.003518424364301609,-0.020290110114729032
-0.026271105525665917,-0.0036364415336720413,-0.02418026269879192
-0.025504219593130983,-0.00275168690677674,-0.02619106635393109
-0.02671056063263677,-0.002372366907366086,-0.025063613065867685
-0.02813922219502274,-0.0032129441933648195,-0.02448528175591491
-0.028418589863576926,-0.00357414342033735,-0.026185845854342915
-0.028692562409560196,-0.0035006953567062737,-0.02626974855957087
-0.02868701812985819,-0.003957389253628207,-0.024490263967891224
-0.028444901545299217,-0.0034982601846422767,-0.024645321900607087
-0.027465335733722895,-0.003136363147859811,-0.027141531973029487
-0.02628856418596115,-0.003928708792955149,-0.028268897949601524
-0.025870727768051438,-0.0052911796046828385,-0.027559501177165657
-0.02481787305441685,-0.006280156412685756,-0.029278293368406594
-0.023212227461044677,-0.006865620889584534,-0.03052696047234349
-0.02334983400942292,-0.005870164841326186,-0.027721962396753952
-0.023826270989957266,-0.005873021109437104,-0.024133389160851948
-0.025056329832295887,-0.007058958544803318,-0.023928187147248536
-0.02437497278151568,-0.006080809725972358,-0.025407285647816025
-0.02400441371719353,-0.005088351826998405,-0.025890354663715698
-0.02311516072950326,-0.0043948616621491965,-0.02542378024372738
-0.02077767567243427,-0.0034482143291825196,-0.02483386197127402
-0.019635161152109504,-0.003377926759640104,-0.024502822270733304
-0.020062527255504392,-0.004363965217635268,-0.02411280911474023
-0.020307334125391208,-0.0055776649787731,-0.024722674424992874
-0.02057218262052629,-0.00457204532722244,-0.02499680340406485
