ch_0,ch_1,ch_2
-0.022052519852877595,0.0028294418825680623,-0.0176013072632486
-0.024549557565478608,0.0030691592201037565,-0.020977729946025647
-0.0274469730356941,0.0009059605758920952,-0.02571463119238615
-0.02903089080064092,-0.002446374992359779,-0.03316984657431021
-0.028487713279901072,-0.006098925950936973,-0.03906197889591567
-0.02833915459632408,-0.0068720673880307,-0.04142138277529739
-0.02948334440588951,-0.004179721599939512,-0.04296934275771491
-0.030521583539666608,-0.002547169970057439,-0.041136896470561624
-0.031293529900722206,-0.0007735758913440804,-0.035883949749404564
-0.032001353247324005,-4.3793082937781946e-05,-0.03662384187919088
-0.032735730201238766,-0.0028354613732517464,-0.04245274976710789
-0.0348304929502774,-0.007471354365407024,-0.04526493285084143
-0.03604666926548816,-0.008012099897314329,-0.04113845352549106
-0.035707133065443486,-0.0035071886941295816,-0.03215529432054609
-0.035542467230698094,0.0028779656986444024,-0.026948975573759526
-0.03478943108348176,0.009137968845607247,-0.025122873921645805
-0.0326326880895067,0.016716992831788957,-0.024110826416290365
-0.03147179450024851,0.022374902982846834,-0.019276334569440223
-0.03173173899995163,0.024502254746039398,-0.011013943549187388
-0.029932254619779997,0.022720460037817247,-0.0029320831345103215
-0.026937441361951642,0.01645144948270172,0.004214482942188624
-0.025220946554327384,0.010231023225060198,0.005738340405514464
-0.026353865905548446,0.008339592568518128,0.00020884843365820416
-0.02764476084848866,0.00918785372050479,-0.005513055384653853
-0.02685976323846262,0.006253910669329343,-0.007911250577308238
-0.021682355509256013,-0.003503372681734618,-0.014305607692222111
-0.015778476154082455,-0.0203862273338018,-0.02659293204487767
-0.011845740118587855,-0.040157279727282,-0.03928245132556185
-0.008682164661877323,-0.0551382836420089,-0.044700787839246914
-0.00856943370308727,-0.05737995888921432,-0.04366058055893518
-0.012247431186551694,-0.049689704610500485,-0.0406741673941724
-0.01608468301128596,-0.045528933696914464,-0.042156414565397426
-0.017504231436760165,-0.050342925533186644,-0.048796835471875966
-0.01691349461907521,-0.053641724662156776,-0.050308874051552266
-0.015840178093640134,-0.04346670539234765,-0.039441885746782646
-0.01475014414609177,-0.02363009480177425,-0.025578854547347873
-0.011509837349876761,-0.007296302555914735,-0.023342772692558356
-0.009225771464116406,0.0004882439839093422,-0.027188942112843506
-0.011392146916477941,0.0023451570996257942,-0.0289958443318028
-0.01315633471676847,0.0019026235804631142,-0.028466733056120574
-0.012595303815032821,-0.0001720850661968143,-0.027728479835786857
-0.013473641047312412,-0.0024172661596821854,-0.02525987474655267
-0.016416326616308652,-0.0026669240469345823,-0.01934392457769718
-0.018308262951904908,-0.00048146495146283996,-0.014890719285176601
-0.019836981664411724,0.0003289664505246037,-0.01754298500600271
-0.02093963666993659,-0.0021588791696558474,-0.023487316866521724
-0.021152362023713067,-0.0057463839766569436,-0.028351905712042935
-0.021517133063753136,-0.006274462066357955,-0.029718361474806443
-0.022882713892613538,-0.003441333319642581,-0.025069319235626608
-0.023014192265691236,-0.0012240312798894593,-0.016270170817733742
-0.023156193492468446,0.00013056767045327433,-0.006237928118935088
-0.023999764380278066,0.003362327106515295,-0.001997836534428643
-0.023930811948957853,0.008632809112896211,-0.0068595263655879535
-0.023361490093520842,0.01041389987221919,-0.015701667507528327
-0.02388900611549616,0.009439825589652173,-0.018918062778539024
-0.02500648406567052,0.007440346962539479,-0.018575878129922785
-0.02542119000281673,0.0035789610137726413,-0.02069833681161981
-0.026495752535993233,0.0010875088491957285,-0.023880551452748477
-0.026470133889233693,0.0025927647584467195,-0.025491606720606796
-0.02517058965167962,0.005117941327625886,-0.02601730011519976
-0.025029345124494284,0.005882379355170997,-0.026721771064330824
-0.02517562279535923,0.0037868933304707753,-0.02884624518628698
-0.02446715188852977,0.0017666247913439292,-0.031370196666102856
-0.02526266689528711,0.002433080908303964,-0.031108109396882355
-0.027024476366932504,0.002527420747355791,-0.02837149440892972
-0.02878127634176053,0.0007374497386081202,-0.026256560886395164
-0.02960823621833697,-0.0005456926714941801,-0.025159546567010693
-0.027438332836027257,-0.0007341614036704414,-0.02660665450093802
-0.025151381123578176,0.00011521917286927419,-0.029344300855882466
-0.025042190827662125,0.0010434899877509451,-0.03156342063448392
-0.026277311917510815,0.0005499990152202372,-0.03235902840970084
-0.028234562705620192,-9.973666692530969e-05,-0.03050501436518971
-0.02937657518486958,-3.1098000619067534e-05,-0.02732279790507164
-0.02870202843041625,-6.202024138701745e-05,-0.025346438633278012
-0.027872789360117167,-0.0007804921438037127,-0.024019134798436426
-0.028373286113492213,-0.0008789526759755972,-0.02475356450304389
-0.029579492547782138,0.00035789008734354866,-0.02694744944164995
-0.02938612124125939,-0.0006273544954638055,-0.02703127574932296
-0.029002125302213244,-0.00310490349875181,-0.02366682019783184
-0.02777327063085977,-0.005761539341619937,-0.024025694074225612
-0.025345440008095466,-0.007794837983965408,-0.030473986043944024
-0.024397761080763303,-0.009331894943898078,-0.03403390655876137
-0.026959793103742413,-0.010847324119822588,-0.033963991882046685
-0.029210748834884726,-0.010260575436404906,-0.032114032364916056
-0.029225593607407063,-0.006626321464864304,-0.030234137739171274
-0.028145987016614527,-0.003420466327952454,-0.03119471512036398
-0.027483203666633926,-0.0010404352224213653,-0.03450158692430705
-0.02618417056510225,0.0026540378712525126,-0.032695290428819135
-0.025157029085676186,0.007248841029650066,-0.02279778527736198
-0.02586623486422468,0.01022017931973096,-0.01061070815921994
-0.027100666557089426,0.009805315130506642,-0.0029976545192766935
-0.028699540052912198,0.008223224540415686,-0.0015092746252776124
-0.028098149414290674,0.007049642135825707,-0.005096704171592137
-0.024336002752534114,0.004672288014262449,-0.010751163245004136
-0.021913272576057352,0.00352591200680763,-0.012943909496243577
-0.02048387068498414,0.003226614126106142,-0.007654906767129432
-0.02090474845317658,0.001529846144876501,-0.0011063279998779763
-0.02165751538996119,-0.0026193392841378227,-0.0026545537821220933
-0.020607487385859713,-0.008218171387852635,-0.010715422831708565
-0.018652415747055784,-0.01305394744122168,-0.018607161109684967
-0.017731103071128018,-0.017779851987143047,-0.02505070915503893
-0.01862016688392032,-0.019060915292357095,-0.03173570803483017
-0.020190058421576396,-0.012150169823144097,-0.0347699060512241
-0.022713054931955412,-0.0025356582682434237,-0.02958120239782147
-0.025572257072781213,0.00204439902518061,-0.024022790967137553
-0.025609218937461264,0.0003745586809600354,-0.02219299494754523
-0.02329412382096052,-0.0035352416034584166,-0.022800521037424915
-0.021782721887575462,-0.006374837994371774,-0.02077404315059539
-0.022835949494037777,-0.005904999852646142,-0.018289039871888235
-0.024676510292920284,-0.004253511178831104,-0.019472188796498813
-0.025203613404300995,-0.0036255769373383373,-0.02378409590164665
-0.025337130864500068,-0.002960543497465551,-0.027983300242340192
-0.027161075195181184,-0.0016080562090792228,-0.030108660212135874
-0.030162687835399993,0.0003628854017279082,-0.0303038668789668
-0.03051027306355536,0.001646013970457716,-0.03003589517902583
-0.02852488250937313,-0.0006233320846149581,-0.029273998734424822
-0.027738888093153946,-0.0043409781937953085,-0.027887437681783922
-0.026463041649549268,-0.006727245363435941,-0.027083404347649775
-0.024335597117897123,-0.00755523660700419,-0.02734836016315967
-0.02374632458668202,-0.006220071554707829,-0.02683799721125979
-0.024565997591707855,-0.0039039418879838195,-0.02393895192653872
-0.02419886368443258,-0.001811484366953664,-0.021291762095643207
-0.024878658223315142,-1.1198554972224883e-05,-0.019868199160555378
-0.02502176539564971,0.002289508756803116,-0.02014098208746873
-0.025443119739065878,0.005455821337818634,-0.023424137907568365
-0.025594918042770587,0.008351918950211257,-0.02843317633960396
-0.022887292288942263,0.011150581485708244,-0.02931578092102427
-0.018873955923481844,0.012702556887234095,-0.028483727874117903
-0.01637216155359056,0.013416783076536376,-0.030342880563694052
-0.015956107745296322,0.015098288713488728,-0.0321518091368489
-0.01623246498638764,0.016185558706638403,-0.03149681651848368
-0.018385406292509288,0.013064170161669608,-0.028493665013229474
-0.02073864197882358,0.0038703760765201878,-0.02861183565983083
-0.023815835447749123,-0.005968493496766314,-0.031002167816041037
-0.0263420442934148,-0.014133717741060536,-0.02995625982293859
-0.02540913556003943,-0.02624330772960093,-0.02832521749951411
-0.021542329704971053,-0.041208008042303845,-0.03415287210373208
-0.018629132682690397,-0.051892027840949595,-0.04481686482904479
-0.017135072994278744,-0.055151398555608466,-0.05600833901553415
-0.016902000425034203,-0.0519123968842905,-0.06796456000301987
-0.018693297533900477,-0.04530569276539609,-0.07818394806236029
-0.0212939121411182,-0.0395005990867503,-0.07944007666083053
-0.021723451936850324,-0.0332907002302818,-0.0646601474727504
-0.020232573660905473,-0.025469942556810565,-0.03494057455100119
-0.019655708456411958,-0.017210148143931292,-0.001526561959508399
-0.019980274373665452,-0.008741733836359344,0.030637562304036692
-0.019311602954985574,0.002410866954960511,0.053894193115411326
-0.01939905996550806,0.01005330341286026,0.05924534343648702
-0.018705555703490973,0.010162721991946455,0.04762916432810016
-0.01680548484728206,0.00726823918739683,0.028194093829370104
-0.012641175999306142,0.007402392384392442,0.008899017302610446
-0.008976679964689538,0.009201153261528816,-0.007241376806632616
-0.009955149835150223,0.0076522510426002555,-0.01857948700489942
-0.013169998055673204,0.0025144649953290354,-0.022806067136116326
-0.014377190382219851,-0.002072981942546903,-0.01785242056939751
-0.014065223695070017,-0.002562577037679148,-0.010822735930560157
-0.015018493286333978,-0.0035815357932733605,-0.012346536095719784
-0.015726120182080194,-0.007127549451979576,-0.024858431061147712
-0.01577337388880551,-0.011430160157033242,-0.04342965257819742
-0.015503663234994747,-0.01315574536420172,-0.05513075666385703
-0.017275577192776836,-0.00984704092843458,-0.051295199227752164
-0.02028546077781357,-0.0025044334961421555,-0.0395904244214762
-0.021863072106498294,0.004508448910200968,-0.030972634704085067
-0.022997770429356024,0.007335152986343019,-0.029162149076000787
-0.024132106773322448,0.0058501777857600246,-0.03369425394339487
-0.02418342774035409,0.0020977138319722144,-0.04342674947110936
-0.02548214433772955,-0.0012324267117946874,-0.05343708471627906
-0.028589880457730033,-0.002343752385058906,-0.05628741200780496
-0.02970517016365193,-0.002356028744543437,-0.05046371734351851
-0.02841329842340201,-0.0018236894447909435,-0.041678107663756236
-0.028307706088526174,0.0004528382646640239,-0.0334897413267754
-0.028375363399391063,0.003018010829691775,-0.027755288101616316
-0.028524877052404918,0.004522759809333365,-0.026669549697544426
-0.029825398087268695,0.004906367848889204,-0.024564273189753294
-0.031234827474690974,0.0028913102596561657,-0.022881717086420394
-0.03173150253132917,0.0006985175673435151,-0.02394392322457861
-0.03333143831696361,-0.0011076649570895825,-0.026586425519781187
-0.03472884782240726,-0.0005977598789286276,-0.027680427592713386
-0.03471723175607622,0.0014100747876000241,-0.02566653347457759
-0.03313150227768347,0.0020933559881086694,-0.023503585907747038
-0.03152187855448574,0.0019418203009990975,-0.023370334020000882
-0.03173159348079935,0.0016835851965879556,-0.02446847975079436
-0.03279271550127305,0.001010938376566628,-0.02407879219390452
-0.032669046049704775,0.0012509671023508417,-0.022762831576983444
-0.03136144005111419,0.0011923804095204105,-0.024550787202315405
-0.03042340358661022,0.0005323747700458625,-0.029055516279186122
-0.03135986844426952,-0.00011943843958306388,-0.03160215055686422
-0.030845996661810204,0.0013567264431912918,-0.028494518119259737
-0.028470436518546194,0.0028519971237983555,-0.02279740510857664
-0.025731300411280245,0.0025081917556235567,-0.018065406038658693
-0.02454744571878109,0.002291904593221261,-0.01714929021545686
-0.0241553716477938,0.00535443223270704,-0.01534637704025954
-0.025287052267231047,0.008520531991962343,-0.010002063390857074
-0.027854730433318764,0.009751358447829261,-0.004771572093886789
-0.029548917154897936,0.009378753929922823,-0.004151727353018941
-0.029775603252346627,0.008708214409125503,-0.009484409929427784
-0.0289129457087256,0.008822215932013933,-0.015426063328050077
-0.027576978027354926,0.0076133551374368835,-0.017786074749892578
-0.026413023078930564,0.005524732841877267,-0.017314916476607323
-0.025697838282212615,0.003027209686479182,-0.0163088807312306
-0.024599219614174217,0.00035934760944655864,-0.01793799856386613
-0.023726352083031088,-0.001730838448565919,-0.02323179978702683
-0.02253648744954262,-0.0037254239941830747,-0.0295215559162898
-0.019909139155060984,-0.007690657184866723,-0.035145792935509235
-0.016657981177559122,-0.013162383766029961,-0.03964667484979145
-0.01606886144145392,-0.018229466149932705,-0.043305655708536506
-0.01677690124779474,-0.020738603780046105,-0.04581810935633257
-0.015777584849274717,-0.01899906237667892,-0.04374740456114523
-0.014254968846216798,-0.015616657037753612,-0.03552355701685883
-0.014440319318964612,-0.014847980310150888,-0.024487531845807098
-0.01513554343546275,-0.013988365935801994,-0.01453155346098356
-0.016773996321717277,-0.010934211786661763,-0.009076828973775264
-0.01887596954475157,-0.006385407232301077,-0.00853082565299701
-0.019614482880569994,-0.004297070063330466,-0.011802876542787999
-0.018510434529162012,-0.007619041298312368,-0.017454198314226232
-0.0173890839505475,-0.012738054465444293,-0.02072131792374421
-0.016359015717171133,-0.014941864719730802,-0.02300945016031619
-0.01718261410132982,-0.015158169844653457,-0.028937391107319854
-0.019306513422634453,-0.01602098382136319,-0.03188647315255366
-0.022190177332959138,-0.015809049727977253,-0.02792773193505127
-0.02421490898996126,-0.012898948625661433,-0.022121295842225663
-0.02299928746651858,-0.00850428932608338,-0.01884123958006967
-0.02056443554465659,-0.004647332389140502,-0.01915965913212858
-0.019462837371975183,-0.0034268191484443378,-0.019147424609400332
-0.020146730093983933,-0.004216443358018296,-0.01694290403975174
-0.021561148969340138,-0.0037427705592563143,-0.01756936762831174
-0.02398438118689228,-0.0023552663606096758,-0.02011159449466504
-0.025667275622254238,-0.003006965016538743,-0.021317446226021275
-0.025261057089664973,-0.005134356797498185,-0.020783742002095096
-0.025261597329517826,-0.005519355454453034,-0.019647806766442955
-0.026969755708705634,-0.004376048309495673,-0.01874356166808866
-0.02783264426398091,-0.002816750793499523,-0.01906479155877605
-0.02794253668980673,-0.0025555220872774953,-0.022064508812036365
-0.02779030728561338,-0.003972310878452845,-0.02722476710914634
-0.027681155188474804,-0.005365617198549444,-0.032526368158869445
-0.027931915610679425,-0.0052590289669751655,-0.03644368553068489
-0.028265078071854077,-0.002931666358563234,-0.03814890078501776
-0.027835687433253042,-0.001630416591069661,-0.037101690395502374
-0.029165357773308642,-0.0016643059552734485,-0.03553982969606295
-0.031004223274067044,-0.0008690935828781221,-0.035925142583437264
-0.031842489988775924,-7.292332782071753e-05,-0.036310531868366525
-0.030998828151496127,0.002846014922397444,-0.03366249075043015
-0.030238108593039215,0.006340243999147788,-0.029125441869837232
-0.02985976061609108,0.01141231678047916,-0.0234348262893036
-0.030581570172216743,0.017055359421647154,-0.015990481188055128
-0.031816056434763595,0.01963711838470772,-0.011035000170522835
-0.03181118881911971,0.018271324734087102,-0.01142400833487045
-0.029940227250335738,0.01576265276526101,-0.013638697964779567
-0.026848951165447943,0.012622960639419034,-0.015775787687744014
-0.023463844627258368,0.007007400654401863,-0.02076386044791434
-0.021818597815581597,0.0018166290374210803,-0.02806265365506988
-0.02138888339686673,-1.8694917613970574e-05,-0.03316284346510656
-0.018818389435182326,-0.0026436871394253103,-0.03386820390005596
-0.016303569282172248,-0.005537958259083098,-0.03159001425956376
-0.014860075680189766,-0.0065430822360212915,-0.03019036194018554
-0.014193078641255852,-0.006846298219898017,-0.03286032733740285
-0.01517642340331804,-0.009888829481496941,-0.03523932900861837
-0.017897424186230637,-0.01652947139518801,-0.03408104385016486
-0.01841799712565262,-0.02355766628170386,-0.0323693202517461
-0.014595693755836692,-0.03007138911925722,-0.033088999771280214
-0.010177020158153027,-0.033931744837900624,-0.033446143788751215
-0.008616122613602784,-0.03276514689787291,-0.03190336065017618
-0.0074833465077972505,-0.027594798666541465,-0.028796144761145115
-0.005827120730828028,-0.02047659108939115,-0.02425052662147209
-0.006033300905983197,-0.010448867215018254,-0.018605207515065558
-0.010391860087111127,-0.0020065797343704617,-0.014818611816735938
-0.016377227439079434,0.00012042727348671178,-0.015212257494567893
-0.021405578081612475,-0.0029921302484581247,-0.01964495277206879
-0.02357528683205601,-0.007173592166509479,-0.01942129892995581
-0.024228038455476053,-0.009626113751437515,-0.02001463872147724
-0.023221438823384233,-0.009645424142945558,-0.02497960849723313
-0.021167623344808817,-0.008115549462672789,-0.027546740966499783
-0.019118340787827037,-0.005460090960696107,-0.02372511153225787
-0.019689816326717846,-0.0024907126316975337,-0.01953504943230655
-0.021079376892885193,-0.00017333104551653378,-0.018372518752585165
-0.021961048332741484,0.000927280609630543,-0.019216064174543135
-0.02419449265289586,0.0007023756438684359,-0.020564850274240598
-0.026715693820733577,-0.0018357731050855364,-0.020997862520744093
-0.02746541940723546,-0.004519095455179922,-0.020110161131015047
-0.027074796889792196,-0.005021357083023759,-0.01936856824613642
-0.026675852495827712,-0.002195381739511504,-0.01945394978974946
-0.02785789365589153,0.0006172985536068154,-0.021932490199105814
-0.02739127194217872,0.0020561233213811647,-0.02572111043264158
-0.025321913199150003,0.001873598762358597,-0.028266204026294872
-0.023894821424619295,-0.0007253230478454498,-0.029122264095349237
-0.02392346868873574,-0.0027228966246184427,-0.029325770810828544
-0.025517098038108088,0.00014977672435634304,-0.028226146241649985
-0.027552239771466702,0.005956044333288446,-0.026691745006246492
-0.028220676540513523,0.00881536107044667,-0.02673383460205514
-0.028820757506764494,0.008455986971966922,-0.026258783691446297
-0.028535108867799863,0.00805080071586417,-0.018526554413256235
-0.02946232598333154,0.009560988473822363,-0.008315289960592054
-0.031489696993958205,0.011239175364607945,-0.006822061550337821
-0.033020311093423516,0.010775897862913553,-0.012698940736299846
-0.03557599484338425,0.007780596206430346,-0.01803905797714833
-0.035579680115915835,0.0045973984015290625,-0.020673602193710394
-0.03406528412597254,0.0018852157381843426,-0.02089613553835079
-0.03442816887400113,-0.0009410787242813967,-0.022625667043030262
-0.035294073313707486,-0.004527310011326335,-0.02789395148283802
-0.0346829547197558,-0.008505049663654063,-0.03154083606204949
-0.033902171708177775,-0.011295968761260156,-0.034548298572190106
-0.03411942088860087,-0.014106067283137236,-0.044164586142869666
-0.03345194272696972,-0.01645775955694262,-0.05637051799567416
-0.030554063414456323,-0.013889965885027777,-0.05886338112759404
-0.028877617296529934,-0.007645277037227061,-0.05029246676713228
-0.028429234589566477,-0.0019269059521320742,-0.04159406671533361
-0.02541300273151137,0.000994828155853611,-0.03609915074775927
-0.021668558474630117,0.001848926444836252,-0.03073929838137701
-0.01894346314657014,0.0013113044587953482,-0.022428430384024978
-0.016309502825606614,0.003113769025731017,-0.01160857664217474
-0.01401841473125387,0.0032886559893086087,-0.001073076873581158
-0.012204623999423347,0.0014497660458800965,0.0067726186898653395
-0.011112219908682164,-0.0006082989330025157,0.01045724275172688
-0.010474597729626112,-0.0038543366827070713,0.007038010153337382
-0.010153493349207565,-0.009005399078887422,-0.003816719527094392
-0.010218196621281095,-0.017108493921114132,-0.01758041253197007
-0.008835241715132724,-0.023825408788979985,-0.02856414175766986
-0.007241331786644878,-0.02365798172832001,-0.033922198781510815
-0.007689158337598201,-0.019855460777762346,-0.03392000144231133
-0.009387221325596329,-0.016308835256495513,-0.03195955287083052
-0.011492013982206117,-0.010465381819813047,-0.02849284646799788
-0.01604146382305771,-0.0030922658424969995,-0.025616134735173546
-0.018698645362746902,-0.00038770295418544265,-0.023683531253482215
-0.0196788660105085,-0.002797730758175021,-0.02445492282276973
-0.02230372956546489,-0.006270540779951261,-0.028178510547149926
-0.025792529413593,-0.008336292012245394,-0.03105425275862217
-0.02701900120882783,-0.007408077635773225,-0.029483637263183482
-0.02710890657908749,-0.005728333235310856,-0.025586894480511546
-0.027836962544824928,-0.005016954673919827,-0.02327295260329265
-0.027740201403503306,-0.003710341161422548,-0.02335768294869922
-0.026294532290194184,0.00086295972323569,-0.02578111525508575
-0.025982459192164242,0.0060349634622980375,-0.028516205929918215
-0.026582965801935643,0.0063411139308300335,-0.03131367702735588
-0.027621857952908613,0.0027994742595183197,-0.03328155435156077
-0.028863638362963684,0.0010062123010357027,-0.03306332291685976
-0.028969328923267312,0.0010079965022669057,-0.0276891041721683
-0.02790484722936526,0.000882352935605013,-0.02078548277495429
-0.027158981538377702,-0.0003488512732019444,-0.020828474589507096
-0.02692053203645628,-0.0028239314815436956,-0.02658086123119574
-0.026692696337704547,-0.00423856545239687,-0.029270839149830863
-0.026460511435288936,-0.0026931527372653363,-0.0233462833421072
-0.02558258165663574,-0.0007463863767043222,-0.015874045857344754
-0.025202683900715783,-0.0019900555798813002,-0.012995396900805645
-0.026241950763505884,-0.0032454083793709287,-0.01248248099727789
-0.027427637178334408,-0.0019941678601753665,-0.012663085726671852
-0.02674696224858053,-0.00041811242112999025,-0.013443582247418817
-0.024134511477313936,-0.0007616506536578527,-0.017158101400127634
-0.021741669115726836,-0.0014857849919280852,-0.020860110453213565
-0.019069102563662454,-0.0010524073559281533,-0.024456841856590472
-0.017255933926207945,-0.00250991956818325,-0.02829424738592934
-0.0169183113030158,-0.005200133728067158,-0.030060311473789625
-0.016918849723879248,-0.004339720817370107,-0.028197260689921677
-0.017339316400466487,-0.0014598085726902355,-0.026565561711322516
-0.018482476662029512,-0.001622930994926719,-0.026772358978632838
-0.020128523829043843,-0.0039067454054020345,-0.027830234103021212
-0.019573230019886978,-0.004867191364610335,-0.028006914362777025
-0.02001249413297046,-0.005078583853901364,-0.027262041840003803
-0.02394785224169027,-0.006379527349054115,-0.02632922951306682
-0.02781465809675865,-0.007144772098399699,-0.026783833163790405
-0.030251188945840113,-0.00607616811976186,-0.03045633820875082
-0.03132022902718745,-0.004634821834770264,-0.03631117579061538
-0.033064545277738944,-0.0031916104035190074,-0.04196420923108235
-0.03267182546551339,0.0006270711878642032,-0.03607883627410047
-0.031767322070663795,0.007451431429217337,-0.01884134326246567
-0.031054754799697548,0.013418189155345317,-0.005619394869427197
-0.030900875572115183,0.015431227438966744,-0.003329494802528643
-0.030737792258150876,0.013985608347866219,-0.002046972667812952
-0.030750903533771634,0.012478607459343038,-0.0014925366258466966
-0.030038345357752405,0.011831085430458188,-0.003986526280641556
-0.028119942726334557,0.011848038411699235,-0.0038903631320863497
-0.02479732211213559,0.011026337233488448,-0.0021778887457912788
-0.02143095298379194,0.006609785032196669,-0.006185641268530162
-0.019829252778436057,-0.0002530969993586041,-0.012630564015125856
-0.018000266209128313,-0.007760392691125162,-0.01837927811720874
-0.014248437764763366,-0.01887578946480062,-0.02847138785000425
-0.013988538739795331,-0.03428158743190579,-0.041598403186071664
-0.015874711607466452,-0.05075040098745376,-0.05596870687440969
-0.01642465213080868,-0.06225817196536809,-0.06840628338977695
-0.015792607882758602,-0.05951228376943618,-0.06915252015460283
-0.017440928786527365,-0.046745157305849716,-0.05565841274801642
-0.021378293240559287,-0.03138646934530698,-0.0390766144846566
-0.024462933652102947,-0.01784267988114152,-0.03246046253480017
-0.02516787026252132,-0.007705821190029383,-0.03816817479673773
-0.024790537281660363,0.001767377966643835,-0.04199216346023604
-0.024564331397414207,0.010617114639899228,-0.03366747114341706
-0.025537723558954895,0.013844615750713274,-0.023053153199725784
-0.02685696199478116,0.011528748473210726,-0.020969166143913753
-0.026551391783868894,0.008445565981674008,-0.025946003006538376
-0.026359246476204135,0.006878617114125518,-0.03271130481152795
-0.027472224246594124,0.007188394647528185,-0.03577726965886541
-0.02919164217018988,0.00928326971916249,-0.03279210068285465
-0.029962688131490722,0.01180568870040588,-0.02384713116043713
-0.030213386708055623,0.011891761459992267,-0.012962741493538488
-0.030757128115510568,0.007150674719014205,-0.008601976333011407
-0.027790991225629114,-0.003798489842665731,-0.012716616765828803
-0.024467210096190684,-0.01714649442874361,-0.022931148123461753
-0.023182437871582806,-0.0281525390164461,-0.03232731978641823
-0.022258707758737728,-0.030609498935518786,-0.033749736758181825
-0.02249395583930891,-0.02211765786341857,-0.02884709283534903
-0.022378169887815602,-0.011656708011287265,-0.02367982415307779
-0.022332129447022453,-0.007668540092709009,-0.020886292986688204
-0.021671907234122045,-0.009153758583124727,-0.02048705573542975
-0.019095008610747755,-0.012478958524297923,-0.02488875361450482
-0.017836920960689895,-0.014041011127119418,-0.03130817640339956
-0.020323070202721283,-0.012795154361811,-0.0329651047650259
-0.023837888875277713,-0.007938611815916374,-0.029718161385972053
-0.02518726250855252,-0.0030847709240333643,-0.02378794306423515
-0.02456080255797133,0.0005211672373661713,-0.018420176274958067
-0.024823137209750712,0.0037240674828353804,-0.015565476132906042
-0.026432608137838542,0.0053146427489991765,-0.013233342542662285
-0.027517204216565005,0.00480192102259025,-0.01172023985418491
-0.02792107261484489,0.004010319571534637,-0.011772209290938918
-0.027130567104904912,0.00334048149852606,-0.013212767953518778
-0.025561828806530684,0.0031876274988462683,-0.015597768651787192
-0.02535333806008566,0.004274074399290839,-0.01996832543227356
-0.02667444641701877,0.004868188170803478,-0.025508508770144545
-0.027419744583312422,0.003740258307516342,-0.025461953555350192
-0.028017724616802298,0.0020853242403973127,-0.022616746718995273
-0.02804387804644648,0.0016959637605395983,-0.02246693657070864
-0.028215927159180865,0.0021502901290659793,-0.022801244995207526
-0.029085536880302243,0.0012476914434955688,-0.021020958229200915
-0.029696431738557294,0.0010966032277792692,-0.016576859707129188
-0.028682041374850087,0.0035805226161755854,-0.01141919619840337
-0.025106508473982103,0.007976820597832557,-0.007848367204132956
-0.02088911787723191,0.012024137504340615,-0.0069880647970421705
-0.019747434635064565,0.014207353160600178,-0.008169448847183958
-0.021047089830972254,0.014332716091303155,-0.00910277958610095
-0.022197282305569388,0.012481049452617299,-0.006561157533724327
-0.0237869426200632,0.01063994932337664,-0.006840735295554623
-0.024302808014908805,0.010001919690694194,-0.010024377843365073
-0.023494088964071125,0.007693894986005034,-0.01337372486887034
-0.021856742023373954,0.002343094820389524,-0.01668258300924208
-0.02184631011914462,-0.0030421415431192145,-0.022012736735632643
-0.024097780624288134,-0.006040491825842764,-0.027307019990985282
-0.025418607037863694,-0.00684332417222322,-0.031020874303067103
-0.0232293223234592,-0.006387544090102892,-0.03435207327129319
-0.02002680594159756,-0.0076939904829487205,-0.039232862036442384
-0.019376850104890764,-0.011951740816584788,-0.04496664405451156
-0.021296997147146612,-0.015412157154059969,-0.04670300768339075
-0.023020516891847365,-0.013645463695866056,-0.042380554077681154
-0.024623483113828115,-0.008358283594134264,-0.03569056570995599
-0.02560908797022421,-0.003832453330687713,-0.03258087963331491
-0.02669329842319712,-0.002848244776032516,-0.0312136544380337
-0.027277124900138006,-0.0028214433314133203,-0.02923883766925428
-0.026215240723104216,-0.0026437094220455037,-0.027080326617578976
-0.02548526754253544,-0.005104534920974402,-0.025599334549042396
-0.0259245716733858,-0.007765436748741195,-0.026579084078548476
-0.02548878183006309,-0.007274635208887048,-0.028808244678657502
-0.025035733415279537,-0.006058826329535805,-0.029383349101408385
-0.024314867914654315,-0.0055311502364929765,-0.029995468139532022
-0.023444954422302544,-0.0035161294817953603,-0.030310851798276417
-0.023490436433348805,-0.000567862116440665,-0.028493588615674525
-0.023303015041165054,0.0019500491816870635,-0.024711496735108085
-0.021656223907484673,0.002926023853433435,-0.019312044969410636
-0.01953773789864499,0.004954537416779203,-0.013077362382318825
-0.017843605746747926,0.006657399808318587,-0.010488082807569299
-0.016576941561652347,0.006318105533864582,-0.012090379641449545
-0.015232863006531261,0.004481542873691069,-0.017726326404954307
-0.01534634066047147,0.002253981620015111,-0.025162831661873497
-0.01806311047403142,0.00012332426990724343,-0.03094347266596742
-0.02131840847141575,-0.0005062055379312369,-0.032280502637149766
-0.022454474674304947,-0.0012500153161454364,-0.0313196396746207
-0.02218214467575308,-0.00436327854913543,-0.03055151319131255
-0.02109011256834492,-0.009515943020232953,-0.03057037974940613
-0.02043972745013889,-0.014131889656709973,-0.03323867713334039
-0.020539911929517984,-0.01650018384680152,-0.04075195829500444
-0.02013105222431477,-0.01747598798829131,-0.048121975851245224
-0.019397313735680655,-0.018192116840509698,-0.04824166899197735
-0.018998314772034064,-0.01891826104838401,-0.041646948375273496
-0.01946208612935152,-0.015956806237227283,-0.030078388590482064
-0.021317688151611947,-0.008418526704190299,-0.018793401977745816
-0.021216956156422384,-0.0014943097994546406,-0.011424815966165625
-0.020611090803868137,0.002992732106577023,-0.005434442300611408
-0.020326626327005215,0.004256943157088244,-0.0010240725032417686
-0.019915381926693954,0.0014552018683389178,-0.0020551281068037497
-0.019803161194431596,-0.0029167899811000098,-0.009737349500937853
-0.01980925298994407,-0.0030568864985980326,-0.01719983629300259
-0.02019940802711062,0.003149535814372939,-0.019840492313960567
-0.021038349586888216,0.009165790288534481,-0.01841017001424916
-0.02205740202043671,0.009959599083231296,-0.014529067811963614
-0.02300934102095198,0.008775957212492358,-0.011103767064923886
-0.024052524167927913,0.004997032192477491,-0.012358844287518878
-0.02433665213175118,-0.005785798748547677,-0.018710712538450025
-0.02355331162107177,-0.02035129909927491,-0.03145492519252002
-0.020436027625692077,-0.03152426143060438,-0.043214651668677106
-0.018562372133601457,-0.034143784432671964,-0.04576606806949712
-0.01895346758828964,-0.02513163781259209,-0.039508446207037196
-0.02174777546315454,-0.012270664228708483,-0.031177798518911004
-0.02503762334526982,-0.006694313469779445,-0.027218911782256328
-0.027092852178611793,-0.009872352165984921,-0.02660102654772345
-0.026367064492660575,-0.015939134755171835,-0.02835929080902133
-0.024511256924597546,-0.020626514015020803,-0.033078980777645484
-0.02396216950728558,-0.020181400032015517,-0.03649609789135866
-0.025813014872255735,-0.015688357962062582,-0.03527378066792153
-0.02836080420820508,-0.010901244422711898,-0.030468292607110925
-0.02869409763661679,-0.007749122232780792,-0.025365590772707947
-0.0287103139271494,-0.0048824731493368745,-0.021325548004824668
-0.02972188849525992,-0.004134652499487856,-0.018460223145666532
-0.02990740176755935,-0.003638251655502245,-0.016435898942290805
-0.028435533749870956,-0.004774331955559319,-0.01824544779083226
-0.025375869881827384,-0.0074367208071635105,-0.022840151359559968
-0.02286306698806584,-0.008343547960976139,-0.026789670300786383
-0.023188491468317807,-0.006472244876931654,-0.029224733225419186
-0.024085324184852652,-0.0026012251055362867,-0.028747350370394997
-0.022960655769566074,0.0026541795250523137,-0.023537384549854323
-0.020305569705669768,0.0067782661972159985,-0.01751707895891741
-0.019849596355925314,0.007832665687601548,-0.017185571778099984
-0.02201054485340137,0.005449725449580001,-0.021439538613776676
-0.02354495518375188,0.003361517201483366,-0.025306202587671578
-0.023174567104433663,0.004491736945055891,-0.026003042876254767
-0.022669040845357813,0.006973915333219338,-0.024228516849689186
-0.022687436285195872,0.010170952009502798,-0.02098593358823564
-0.022817866920377128,0.012175793017377146,-0.019762957890634425
-0.021679257770301774,0.0113266687549185,-0.020567253159242682
-0.02054263313766569,0.008664467713970225,-0.02115025563398376
-0.01983110087167006,0.006215847861312795,-0.019791859813267365
-0.019001465261681005,0.005672513452736894,-0.0166877234732965
-0.018660290152183734,0.0064096770984178875,-0.014844366887700744
-0.020236986529198475,0.007690542588534299,-0.016140282241394743
-0.022858390366309322,0.009701644557935651,-0.015542156688752584
-0.024716175175854005,0.008926540431275498,-0.01233401690114988
-0.02443370431137737,0.0045814772420271765,-0.012432607945811469
-0.023258980945684016,-0.0011141463573949295,-0.017083570128306746
-0.023321990738622844,-0.006188166025822284,-0.022314638044917956
-0.022980975700193085,-0.007520362487412058,-0.024518736609024927
-0.022774285753257573,-0.0061741320678265765,-0.024524269974790514
-0.02361706538067665,-0.0012068578598700697,-0.023224891265272163
-0.02448988198011648,0.0026644206627679523,-0.02185133234888781
-0.025933597498806193,0.0024093280899251113,-0.024612929337308742
-0.024860732082743198,-0.002556678282417124,-0.03268992077209987
-0.020575656890287064,-0.011840328625112306,-0.04174826972302981
-0.01640555274207145,-0.020295994545449503,-0.04541880116448738
-0.014443266081798356,-0.024799770471872762,-0.042143619793932885
-0.013844863133272156,-0.025910929252859205,-0.0357398166670464
-0.014995634046499617,-0.02385558582318481,-0.03216057666577399
-0.018838150936062448,-0.018996915969182737,-0.029643126254086383
-0.022215148419491015,-0.01380481626256369,-0.025181107048410922
-0.024363489501411095,-0.013691714229935315,-0.020592155124177225
-0.025464607460889965,-0.016837817383930087,-0.01909480124595575
-0.0262793055298971,-0.01443546534574125,-0.02072846473311074
-0.026115247237612493,-0.0070299965955200605,-0.023844497263780795
-0.026562656785245053,-0.0013298032399688964,-0.024679153284523636
-0.02683100501599256,0.0014612436416427954,-0.021969221052131616
-0.0265090220636921,0.0025255701530113583,-0.01965442243090365
-0.025324015950900503,0.0026460859317012364,-0.019857710867654532
-0.023484095436288044,0.0024338748971786117,-0.020101826521568
-0.023005932234809734,0.0029165678370191017,-0.022206191715667956
-0.022464742869487964,0.003211929197277641,-0.02564159694884438
-0.022760124920750968,0.0017424579255020944,-0.026351486667408608
-0.023903445253381506,-1.9342346391226783e-05,-0.02821049201884307
-0.025016970539581962,0.0004772244324158237,-0.03238462159060873
-0.025955570890801027,0.0012231816981511656,-0.035110653698211536
-0.025210476451320574,0.001337500179943163,-0.03298894807812758
-0.024030092390603386,0.0003451789609698608,-0.03028882019862067
-0.02271205812576227,-0.000410575637488364,-0.028979804483242333
-0.022409483790397644,-0.0010971339179377537,-0.02722577664826531
-0.023842687369324267,-0.0029486204766726587,-0.025256984372390434
-0.024662336727487855,-0.00435626589023741,-0.023550595869892277
-0.024090943043120205,-0.0046938853301981,-0.02206700446549803
-0.0234316958085401,-0.0026128984700335423,-0.02020133069891017
-0.024580940589657985,-0.0005846536055287288,-0.01885094570752699
-0.025546034521539696,-0.00041680698359414237,-0.021081743398099206
-0.025393772375537083,-0.001122124331232044,-0.021958730940241367
-0.025173223548335955,-0.0016358559378204518,-0.0184389682544861
-0.02656837932590861,-0.0014856177585897967,-0.014184798601490911
-0.027778691219282337,3.719994268180926e-05,-0.011767103387683164
-0.02841713467205409,0.0018575237845652737,-0.012412997421051841
-0.027641453925753012,0.0038041550851630745,-0.016069014236563817
-0.026695872293203138,0.004343560704000993,-0.02225606658612378
-0.02642018807819113,0.0029605494091811124,-0.027678559490595944
-0.02847673385986127,-4.512809326229217e-05,-0.03052242027479224
-0.03096895306953229,-0.0022335327685141237,-0.03391151039977558
-0.03172897413605824,-0.002663507984834723,-0.04019613697892055
-0.031247531296685338,-0.0013205733466747915,-0.044518892536871135
-0.030666378734167665,0.0007029512403278204,-0.04389055538922548
-0.03097031731158495,0.005469318693940295,-0.041046580008696765
-0.03105896757915616,0.010226752237940673,-0.03674747858894989
-0.03004230893566273,0.012269180842849892,-0.03373663639649749
-0.03061110692215152,0.012162578059360385,-0.0346860324498266
-0.031235660571837798,0.011067355444538407,-0.03623321754275821
-0.030535749829141423,0.01003607212624047,-0.03583175202948041
-0.03124227441730909,0.010984766049659811,-0.028131780709372833
-0.03222559826099314,0.011529606126714498,-0.014743414794793352
-0.03335527071612887,0.00899578481039498,-0.00031033681580083794
-0.032532090699533,0.0034106265047739726,0.009693710126157384
-0.02999281969096046,-0.003642703404693748,0.018803262719302438
-0.028821408704970963,-0.010131674571312033,0.02735128509812057
-0.027209536710870452,-0.013514916645362973,0.029460179575835355
-0.02178744580305647,-0.01588632403581869,0.02174688779632561
-0.015277966667781584,-0.01953966602741275,0.004496011570154224
-0.011704494681907818,-0.023859667635406367,-0.017473210391472094
-0.010877691238420084,-0.032421619835076854,-0.039690828998573124
-0.010304783245373983,-0.043487925722729415,-0.056535809562774375
-0.011071043445554096,-0.0461388990515843,-0.06101492908783257
-0.013115756701154169,-0.03666221891762689,-0.05508651156560518
-0.014369044038176071,-0.026626947146723978,-0.04985932901035994
-0.012581262126332149,-0.022916294255992398,-0.05256729491520673
-0.007989759069459978,-0.02345752000110224,-0.05930453698965721
-0.0027988032798020868,-0.02402293284831103,-0.060782469518017024
-0.0008273079856735421,-0.023771535779815167,-0.051379458454903215
-0.0019098254142591031,-0.020981169654987752,-0.03753798227990046
-0.0027305975436320296,-0.012109063391108066,-0.027491963919601403
-0.003006269935212913,6.091802617902431e-05,-0.02196542118326761
-0.00471394832857186,0.006062833563191816,-0.018531416571931913
-0.009564438187226187,0.003514971922413679,-0.017615862816455774
-0.015222905858536251,-0.0008053588089751429,-0.020115074221394025
-0.016866919395397417,-0.0031203628623188706,-0.024285689505632035
-0.016641633919789456,-0.0047307717068179045,-0.025578900022082962
-0.018858736439142376,-0.005362550837162416,-0.022760827050660737
-0.02171173218812328,-0.0037327888549043564,-0.018949805962620303
-0.02389703513472341,-0.0006069109304007725,-0.017671423847787082
-0.02621195926622022,0.0019826850348181324,-0.019354178220964968
-0.027568881705519743,0.0017419997675460763,-0.0212327649933286
-0.027015439627575688,-0.0015357346683231299,-0.02043443964794278
-0.02719295116548892,-0.003869481588480994,-0.01991985300264787
-0.02844080336217303,-0.002675250243555638,-0.02325343848497141
-0.030794133635936305,-0.0010304788702342194,-0.028460053727030754
-0.03378443216206506,0.0009540252676742966,-0.029053891921648756
-0.03540636316756718,0.004607214577845298,-0.025195893613272347
-0.03483155160211027,0.007200070740509545,-0.021128547814441845
-0.034002507163677365,0.00521642232342856,-0.019150929801980965
-0.033109739888459444,0.0038345142456819303,-0.01793632145563606
-0.03396429747226648,0.0038429329833888914,-0.01878185685200151
-0.03467688657110557,0.004280481334717479,-0.02015975769609213
-0.03476263736956753,0.004106420419702772,-0.019666040316224098
-0.03329072569613345,0.004619686023943359,-0.016602009054622613
-0.0323979438690003,0.006345533620333299,-0.014081191693549044
-0.03239187572035007,0.0068318172452563886,-0.01619758586457465
-0.031617826607543975,0.006436047442548443,-0.022741403881809674
-0.030812945624347776,0.0049713553380570374,-0.02920321094279643
-0.029791059205308557,0.0006537239300996589,-0.03251440284657292
-0.02836521525750868,-0.0011622205420280807,-0.03308127270429395
-0.027959202270722017,0.0010164475270357798,-0.03306379585410468
-0.02672740629350301,0.003907754035026301,-0.032926418498391286
-0.02486590346961748,0.005986766154819634,-0.030189903554855846
-0.02453285560477525,0.00584415283810813,-0.026019435608759522
-0.025383267711731605,0.00599783970756107,-0.021729501895606518
-0.026161895220866427,0.006266557193157496,-0.01768197034834884
-0.026528836315264925,0.006377558747772127,-0.015077937860041857
-0.027180234610568732,0.00788969555287622,-0.01570429049024824
-0.02764241799013689,0.0072070638452714775,-0.01866774618974887
-0.026824904125533067,0.005321038770489395,-0.02167833736166358
-0.02665752253960818,0.004034012363263173,-0.021769375962321647
-0.027727448468795046,0.005062959644419607,-0.01898592381621711
-0.02722351018746849,0.005676838554791175,-0.016682144632795826
-0.024417189706582576,0.0037555266771960305,-0.01921475268318318
-0.021900879801250994,-0.0002268170362640376,-0.026175412131124176
-0.020743784261867404,-0.007284930688911118,-0.0303911765513476
-0.0186286724783713,-0.014060128705750685,-0.0297635851893574
-0.01772988798620645,-0.016992344171740115,-0.028268668756936677
-0.018646132957655936,-0.01585489371791482,-0.02950366251752712
-0.019712349967448972,-0.015082200661709066,-0.031052510166773573
-0.0189768397831358,-0.016591646271990612,-0.031745104934088886
-0.018077984350384213,-0.01781857827154454,-0.03228408968425356
-0.019378152501303703,-0.014447268767980859,-0.031439900340046734
-0.02192095053032972,-0.008739287295611575,-0.03002362427650951
-0.024351966203539632,-0.006711205969622824,-0.02997951742145233
-0.025599807486287318,-0.006530920472869184,-0.02851268436643295
-0.02401550955255516,-0.005892601166124223,-0.024333439796464518
-0.02303599103470333,-0.0033928420180018293,-0.0195693937712349
-0.023772303393343464,-0.001959384235306061,-0.01597341542947106
-0.02447832048346754,-0.0027247679099673405,-0.014432293028221466
-0.025214492779923603,-0.003439257170612109,-0.01497016000939766
-0.025920651751221158,-0.002061870418401668,-0.01376193995383801
-0.026656683985493146,0.0008562499260733603,-0.009988641977543011
-0.02710295120778028,0.0021102180198795395,-0.007979490874276962
-0.02670372668944765,0.0023956195036589634,-0.010083587767439894
-0.0243383547058329,0.0034809129374480108,-0.014887608813296538
-0.021601423213724047,0.004342254214861896,-0.018295235349796712
-0.022198515580384992,0.005091573711979436,-0.020345221855677664
-0.025030125470948406,0.004893123787041986,-0.02093083821819164
-0.02630783274071291,0.005684377356374171,-0.020993935322621837
-0.025257311790483072,0.005654869255522499,-0.020968458557035774
-0.022584456019103527,0.004452138000488048,-0.02136523835361004
-0.022053192878956906,0.0033418334624002455,-0.024872115318430588
-0.022320069547276944,0.0005612438371827011,-0.02798146306304261
-0.022049205654184334,-0.005534420779440552,-0.030859595426591113
-0.02161821976187639,-0.014106015441939235,-0.03563266000128351
-0.021903302695136517,-0.023435304683516733,-0.04086023909621872
-0.021428617401397787,-0.028558282792801037,-0.042077223042724654
-0.019720118871191517,-0.027551066523301415,-0.03880841541104019
-0.01719841020531021,-0.02398703327344265,-0.03480683153611608
-0.015799027096363716,-0.018971915778820403,-0.032677253329893574
-0.01589300336490851,-0.013643751117342617,-0.03127289892290719
-0.017650971130933613,-0.01014306690194644,-0.029173837901907973
-0.01996882929233834,-0.007881997589720413,-0.026042813260573894
-0.020158806364634074,-0.006428481356124394,-0.023291238903766498
-0.02050279908871744,-0.0069413590608746745,-0.022937170797376893
-0.02206234603363555,-0.007175711743911961,-0.022365791664924473
-0.023741164113744162,-0.006119760655565187,-0.021607638700515963
-0.023599142878083512,-0.005736970706493594,-0.021003648726036772
-0.021579236999968998,-0.0069957109189999755,-0.022630489183939062
-0.020994697479181923,-0.009796397534955759,-0.024428285541944206
-0.021710664441343397,-0.011036665455321781,-0.025617011488066055
-0.02243692688352894,-0.008469301064906176,-0.026672996682464145
-0.023029131625662558,-0.005715888619306497,-0.02703728932829108
-0.02262133057229221,-0.004942635314364452,-0.026465429982636124
-0.021892781660426408,-0.004855108272749931,-0.027106934794574045
-0.02262776433781255,-0.004236199856677558,-0.029114302378729917
-0.02558255619078409,-0.004156543127464829,-0.028256401492399164
-0.027697811674443074,-0.003486508148853318,-0.02472383675922174
-0.027630543627310544,-0.0031603626666765194,-0.024308490537805483
-0.027449623303255066,-0.0041773569137149025,-0.027116429919260554
-0.027412357667344622,-0.00518693059348152,-0.03049794577236753
-0.02611203854030464,-0.005009140295442194,-0.03394200757611543
-0.024683744413778186,-0.0038604557630605996,-0.03672975071822293
-0.024434944862150587,-0.0037244385566737037,-0.038868209230713546
-0.023239148504217155,-0.0034258857795066433,-0.04231936327414587
-0.020258486983948387,-0.0022609467578149633,-0.047211218770826235
-0.018515600459068082,-1.1110779851719599e-05,-0.04908308983431198
-0.019439403331489302,0.0049082232180808205,-0.04247164542903192
-0.020721032342407852,0.014244237718230579,-0.02983004378620535
-0.023325588699663058,0.022970029021962546,-0.015294030163204297
-0.025187644496327266,0.02751533429545816,-0.001955939524123096
-0.025396288037882186,0.02930978371296078,0.006088111149438191
-0.02571560071373824,0.028978822228964418,0.00973690202954458
-0.02609851253509987,0.02839069020410534,0.01183865788334515
-0.027365585992811248,0.02665858846739866,0.01241009795194259
-0.028758733606082387,0.022228561647352763,0.01161427644547075
-0.0283428071270464,0.014995330275269225,0.007964473297761288
-0.02581450462457724,0.005682103164872387,0.0035667910651682178
-0.024279235731228255,-0.0053879480219620746,0.0004990394586457114
-0.024049862986430526,-0.016022075215005316,-0.008623977009847295
-0.022772885131416842,-0.027583642804529518,-0.027683750886353664
-0.021748664948972873,-0.041184979636454955,-0.04745642945636064
-0.023259792214957997,-0.049723177653504536,-0.05840534140588716
-0.023748449166305363,-0.0490558122692164,-0.06142662459751591
-0.020929670426994562,-0.04473365697776899,-0.061296588683035225
-0.017521797417430207,-0.040365237509831786,-0.057351735449628904
-0.01627693563932553,-0.03333077620482072,-0.048052275815280154
-0.016062909708125517,-0.025485993319307454,-0.035433025914244354
-0.015334097042796202,-0.019392018657526933,-0.026199302737950347
-0.015184003132162616,-0.012991905350645538,-0.021860672859475017
-0.016273916116915643,-0.008065357178566046,-0.01953923492692411
-0.017167947589769028,-0.00605470449954737,-0.017359248886350542
-0.0172841773746768,-0.0024643684355396545,-0.015565214198431931
-0.01703271482256241,0.002976624273287598,-0.015747235011076555
-0.01822934063966386,0.007065167665132321,-0.019659097233670764
-0.01893706757982727,0.010327980817237403,-0.022478168830275536
-0.016953505109995604,0.012267811143829022,-0.02433789813949261
-0.015589979739161208,0.010752376510936301,-0.02516803033358883
-0.015419302144437097,0.00881316009326838,-0.02263587884954177
-0.01702495683275629,0.008210427040467039,-0.020584393496392295
-0.021016900063841604,0.00794154402683489,-0.021578962332569063
-0.02508145735191647,0.006338409548334312,-0.023979157049325295
-0.02605263580335304,0.0035451175790512934,-0.02553619196987711
-0.025943776563508436,0.0014863315982438507,-0.02395477167738136
-0.027073287128587253,0.0025749009182618465,-0.019889208488166332
-0.028367607228574343,0.0051851511670975015,-0.01572436849528458
-0.02857594699889887,0.007666919373150449,-0.012995248653169256
-0.028127857149229385,0.007805710993125103,-0.00900939448911231
-0.02891897202061955,0.006095524895499693,-0.002870916887331987
-0.030010294722160324,0.003767379666896886,-0.0013625640349346213
-0.03154056321363896,-0.00020754234242303937,-0.00940887002798263
-0.03128586467937566,-0.0018249336335429689,-0.019971159417764284
-0.030281604267656803,-0.0015270161384250969,-0.029703322070417926
-0.030361394237843342,-0.0025159865799651016,-0.037801040889462456
-0.03215815013390966,-0.0062960698414826766,-0.04313013414503075
-0.03273500988143496,-0.011425206139392685,-0.04745343903778121
-0.03133317659376189,-0.015389501641038805,-0.050898273912025616
-0.029646564144059084,-0.014163291780278087,-0.05221794708631933
-0.02860757194866892,-0.008928099305194337,-0.05205437628319487
-0.028845646738773212,-0.006424859748221934,-0.05174613033886999
-0.029550537874456495,-0.006325832146103494,-0.05065878212917596
-0.029291046303114854,-0.003545233312252094,-0.04778729271492921
-0.027802432668977417,-0.0012942670082338736,-0.04284050010028295
-0.02418975236651022,-0.0003570459057300468,-0.034429587685735896
-0.02201496135967318,0.0006761261488463788,-0.02768980266409926
-0.0228223671001615,0.0004871154146712797,-0.022722704670741223
-0.0253276048169937,0.0011142419680254534,-0.017910300812218338
-0.028099284463678487,0.004256409283698304,-0.01231935038958909
-0.02840867091435939,0.006278778073465219,-0.010218288480245974
-0.026554065698292106,0.0016230166011155234,-0.014295863365987316
-0.024201975975302048,-0.007169419404817745,-0.019711742424988188
-0.021619072867906652,-0.01304789930145489,-0.023181317374110222
-0.02107896398229059,-0.014027724319021218,-0.0248911019298248
-0.023682607206865214,-0.013328401109902188,-0.027578764274949208
-0.026542280465946533,-0.011440184607636184,-0.030002191124367528
-0.027185535145690665,-0.007375668246822897,-0.02711577690206468
-0.02460342693666462,-0.0021881203338125488,-0.02023347587964963
-0.021994792405166663,-0.0003372323078565387,-0.016342566595994867
-0.022086967874201946,6.828133791714208e-05,-0.018133705452783033
-0.02471356128808111,0.0004894582161796279,-0.021291743905749172
-0.026429881472722627,0.00017084865078231815,-0.022567577616428025
-0.02680788566067349,-0.001073398266271397,-0.022441457986133173
-0.027832129489979707,-0.001907141950141522,-0.02312983269803226
-0.029769533284706995,-0.002770467290247325,-0.02247198426630348
-0.03007677514688112,-0.0033814753805927467,-0.020325885998317972
-0.02824285184033215,-0.004019942025479395,-0.019810891899396665
-0.025938370527001098,-0.00559691216039937,-0.018978089428856038
-0.024051170839811675,-0.008824888027447741,-0.019544128008419648
-0.022232929040910676,-0.012124058230256196,-0.02478998248989228
-0.0210645557672251,-0.013842034604749642,-0.03018654024344869
-0.019635412172647193,-0.009073443834495265,-0.03038134309463203
-0.017288642993662506,-0.0008138355838127609,-0.023619355488335714
-0.017331600247416645,0.004057607384311268,-0.0130647813421092
-0.018713048120844178,0.00363412482329295,-0.005200930445425911
-0.019107339539914392,0.0013423800737655256,-0.002277180101373233
-0.01941592745424714,0.0007426377806041273,-0.004006992639915552
-0.018701202861848287,0.0014798991969655617,-0.007950015060487203
-0.018227587133878842,0.0010582235745459911,-0.01078159039025195
-0.0195454886124935,-0.0002508994896288641,-0.015606803572154604
-0.020318675524322316,-0.001682817241999146,-0.02254117134725675
-0.01881500611489173,-0.0026709910798672354,-0.027148116714670323
-0.01884526682260912,-0.0028610431854758644,-0.028312026188359596
-0.021638428734149784,-0.005223299922363367,-0.02731847962422762
-0.022644813725491986,-0.010062205547001213,-0.026390922357677482
-0.020866506019956432,-0.017329533875454217,-0.027867979952134192
-0.017788777768146247,-0.01880181662272662,-0.02830386074492708
-0.016179285012185574,-0.015069289474922698,-0.02709748878260143
-0.01600499490450602,-0.010140798622160219,-0.024046970793278888
-0.016493553630425595,-0.005977339696983108,-0.022422755137085915
-0.016157651771209203,-0.004757605893246364,-0.02227556615252979
-0.01641642847971525,-0.007131246093194932,-0.024334452973562293
-0.01733618410071358,-0.00863425520947203,-0.027035079256165773
-0.018770339011098258,-0.005744238478655461,-0.027049540221923962
-0.02101319478242658,-0.001503153498561005,-0.02764208329608664
-0.022162828827276826,0.0002031430170745807,-0.029840281058568507
-0.02247759584861342,-0.0016750176428104169,-0.030254364901338704
-0.022945425371290185,-0.002777768258965807,-0.02973203118017409
-0.023174910893430933,-0.0021979542452754686,-0.029222535886219703
-0.024334052795893513,-0.0031691902222519275,-0.02928809954028111
-0.024472265067743137,-0.0028127353743911954,-0.030238621548051015
-0.023821206923457794,-0.00012010092120817717,-0.02761789619398769
-0.022578720745514147,0.0009611029554434936,-0.024626642698422074
-0.022677935703541152,0.00014883154619838024,-0.024336706701433286
-0.023941720428410918,-0.001262068849428033,-0.02715663140406832
-0.025177030693157576,-0.002165776550100418,-0.030928520573070273
-0.025895980797940865,-0.0013066783139947802,-0.030889990739524364
-0.026668683858588338,0.0004602163130584813,-0.027021373171010055
-0.025803370590438135,0.0014875606666464591,-0.025317336621810682
-0.02382588900218252,0.00237557514992659,-0.025849560188362375
-0.0221778464037925,0.0023553457140224054,-0.02736492569965776
-0.02067953028017655,0.0004314289014928363,-0.027360114472685382
-0.02017833321588114,-0.0021057585399830714,-0.02503091309336014
-0.020811519789276645,-0.0042883884816546924,-0.025477349481661804
-0.02295729427714832,-0.004785908458870836,-0.028625636332435533
-0.026351521228207275,-0.002670284402483958,-0.031161733204498887
-0.028439651941880584,-0.0023045372472552117,-0.029117072699591517
-0.028516815291368403,-0.0015528579524470842,-0.023467720893677324
-0.02863232475647237,0.0015896655440883478,-0.020991456040064804
-0.028870545065728948,0.0034444519769749604,-0.023385426175082102
-0.02926589331764262,0.00260775709648442,-0.027462448997539468
-0.029356582672335207,0.0043105819713673554,-0.026105648430529982
-0.029130538678145967,0.009877776392386295,-0.021891717551625334
-0.0278811166936066,0.016391883036703803,-0.017979156837100163
-0.027089694413007237,0.020536588635877706,-0.012504912774602417
-0.02934804251708556,0.021329244191292673,-0.007885895684012212
-0.031330720958067104,0.020029165170853958,-0.011389958672225475
-0.03046616620849818,0.015647494365111925,-0.02045790279225912
-0.03150946940877475,0.007561322490801103,-0.02579692409199197
-0.03324829231132753,-0.004063339929416543,-0.026903144316747785
-0.03350496990606189,-0.013930673958384432,-0.02419019438093528
-0.03216064578737132,-0.01603113742021378,-0.019451343177934177
-0.030113653338048607,-0.015551358956145123,-0.01756409437803086
-0.02760565621429123,-0.018707976778387092,-0.020228266293997876
-0.02419299926259555,-0.02500644768588245,-0.02417349060124252
-0.02062491148535628,-0.0291669257421745,-0.028308972105151042
-0.017774571460904554,-0.027708907509804703,-0.03224984902772121
-0.01637909736018628,-0.021824556824867614,-0.035566208680393174
-0.01758370126481168,-0.01647943827265408,-0.04060428909724578
-0.016277461327263154,-0.014128485418041237,-0.04520988659351133
-0.011734746294678189,-0.010039972039521672,-0.041490311559755355
-0.009714673069538549,-0.002895088073273655,-0.027819120077765547
-0.008071712727542035,0.0035710231713892426,-0.012843266631534789
-0.007534189535363112,0.004661595085053705,-0.007649311555724125
-0.0077083532232791185,0.0001251859913509179,-0.011209845979465172
-0.008916129445424303,-0.006080105777073186,-0.014711538824485615
-0.012411294846970122,-0.012140867511334363,-0.017256468709092587
-0.016881749616004527,-0.016171810784726404,-0.019022740161744878
-0.02048417809419334,-0.01713301935524214,-0.021128158550709486
-0.0207806151593104,-0.016068193872342817,-0.023763741410220973
-0.020090445104870014,-0.011799903404607903,-0.025062696295208298
-0.021505426047951914,-0.004709498625743436,-0.023774238798068836
-0.024349310479010455,0.0004857306521444116,-0.023002963644103147
-0.02571385630290024,0.0008741545798329753,-0.025006060241139494
-0.026465568225830793,-0.0016099662616397836,-0.029966011425131
-0.02700768891372718,-0.00557261182621005,-0.03354089494678192
-0.027287329430691898,-0.007567431111965561,-0.03358624962856993
-0.028155256586614996,-0.007786739843140822,-0.03238957651774399
-0.029164275474613532,-0.008312219506478868,-0.0322516389132943
-0.03012602792296093,-0.006818984729761723,-0.030233830329962075
-0.030565268389182165,-0.0020159575342404423,-0.026954096028930508
-0.031312032660935074,0.003361574044902227,-0.02539634078857489
-0.03297986404504627,0.005476021669892361,-0.025306970201199874
-0.03379587724339217,0.0038122818750707665,-0.02833633334375918
-0.0334757351083681,0.0014071065379539505,-0.03202458537998609
-0.032096770155476406,0.0015080885304996627,-0.0317468038701918
-0.031019008019939065,0.006763286819477798,-0.024215298253693618
-0.029809511033818126,0.013487822798197158,-0.015538338629994541
-0.031095853046281263,0.014643947906733956,-0.013786542695015669
-0.03297751027275808,0.011243688277318142,-0.014768618711968884
-0.03374875450390391,0.008548684490961023,-0.01477907699154457
-0.03359050242579542,0.007302664926100988,-0.011784449270635378
-0.033010754123097286,0.00897800418897532,-0.005845503437740263
-0.031715961085865274,0.011408848877181299,-0.00028201441182318376
-0.02969410525111016,0.010954249773931224,0.0017160454035547446
-0.02815180050674826,0.007950482540763915,-0.0012066483350281487
-0.026703577532316558,0.001271335008823371,-0.01020128092932282
-0.023917491489555687,-0.007024951173661975,-0.020547233361867256
-0.020563915313687176,-0.014132210708339699,-0.02757804759312421
-0.017952632333617657,-0.020282699551898986,-0.03187884431099519
-0.01763273212418426,-0.023085549401002936,-0.03286346691311337
-0.017417545677744783,-0.023735472495900467,-0.03479044607956894
-0.015996523870853707,-0.021753645341959782,-0.0378447184630204
-0.015028448615339585,-0.01952151069417596,-0.04113034447073005
-0.015282854292308912,-0.019754288587137125,-0.043431435187812895
-0.014819999705650844,-0.019863868146785535,-0.044318934669718146
-0.012542584045149852,-0.01750785122567322,-0.042770181607920676
-0.008325322596647311,-0.014241451935959049,-0.03867211489705369
-0.0059949384194624145,-0.01233012335433159,-0.03297943476354703
-0.007185641152318567,-0.012269317267055158,-0.02967289401567541
-0.008957929821917787,-0.012032544873363804,-0.03126234150840901
-0.011453459592303261,-0.009815573321247939,-0.03201369327143766
-0.014500949873763602,-0.006200936240929877,-0.028847838621004485
-0.017675751223578118,-0.0037804322801093804,-0.024174338250304572
-0.019869983589160256,-0.00209504150916473,-0.019361952581675723
-0.023408123524859548,-0.0007204696998996951,-0.01284207701246487
-0.025619694497436285,0.0014946151623007609,-0.005787121153844055
-0.02622454849188216,0.0024862490590749076,-0.004735638867714442
-0.02596524245745968,0.001304483703279402,-0.009951574611477554
-0.025832288883975707,-0.0017519025732326554,-0.017940694306162186
-0.02595805563032627,-0.005128553766553523,-0.026795263693202287
-0.02747389044088777,-0.006354715424095048,-0.03205467146472074
-0.028973307053092867,-0.004519573849393055,-0.030373596018762328
-0.027498443159856834,-0.0004145840648561716,-0.025156114134006202
-0.024757480787229724,0.0026214181616524,-0.020022689568577334
-0.02153237619495485,0.0019630222141131526,-0.018043598174699582
-0.020323021090007387,-0.0018603442413223092,-0.020483390471781604
-0.017516736988909543,-0.008432228241872508,-0.026731107936939225
-0.013991239029564895,-0.011238234947086312,-0.031777930416865274
-0.01380407684337115,-0.008708847417437937,-0.030264072847785428
-0.016330053767887875,-0.007379102953564143,-0.027394655262469314
-0.017985201338888146,-0.006487607606686652,-0.02756585854513105
-0.018046212062472478,-0.004412523594510276,-0.028547785404953174
-0.017799913621274754,-0.0011089260851804283,-0.02782758565444965
-0.020483561456785537,-5.17416545164906e-05,-0.026709425583248958
-0.02398831202299334,-0.0003696397357089154,-0.024332657631020993
-0.025514753360766917,0.0007132695145628531,-0.02036887963186018
-0.025944802473532036,0.002152962224499788,-0.01846795748861041
-0.026917507057078183,0.0003968243333929422,-0.020687806681962684
-0.029271224775584415,-0.0027152509574079886,-0.025482064302195795
-0.03280605960753746,-0.0017708944142214023,-0.027692303774529137
-0.03484745684545487,0.0009701877843326656,-0.02712206514843274
-0.03544783976394683,0.00039359284187412413,-0.026951031031785533
-0.033378855732735246,-0.00011174061143037761,-0.028445432690205052
-0.030837010854156688,-0.0010779135664051864,-0.029446104235830717
-0.03031818414456211,-0.002571310233179247,-0.027698129997588694
-0.0322691303153988,-0.0028856482003902784,-0.023457434508600272
-0.03358456160640344,-0.002406644398433855,-0.02044430402747821
-0.03310948522994295,-0.0026836721644940553,-0.023271973986993544
-0.03249102519475855,-0.002600787183837383,-0.02923407191701699
-0.032398613257100806,-0.0031845254397921963,-0.03380262933205813
-0.03125205330434255,-0.0029150919544917997,-0.037270321627147496
-0.02857542312995065,0.00022899692453393072,-0.04134727714699693
-0.026518653612583876,0.0032028506211645436,-0.04178598464932293
-0.02707269050006289,0.0029031098165432923,-0.03801391721935943
-0.02754478009592276,0.004073368017998291,-0.031749987101648
-0.026284042178303935,0.006974114057811676,-0.027301512091071345
-0.02454413152008783,0.010189269232796505,-0.023875434635556303
-0.023774720830260776,0.01086373049474787,-0.021503374227904715
-0.023664915715926327,0.010101900443260092,-0.019893564967787825
-0.024882010620785877,0.010238373761239927,-0.017069784007617272
-0.026807672838913277,0.01177464764623437,-0.010113023563462775
-0.02602453787403647,0.010350029697292484,-0.0029836407975381007
-0.023235135813592933,0.0032933908187260386,-0.003145213895550114
-0.0219464363908628,-0.004430426088219974,-0.00959731187322177
-0.022265001462073997,-0.010309960998711176,-0.01581561446073465
-0.022004740458214656,-0.01559793236083351,-0.0214548890653532
-0.020275521819712594,-0.019299528503324836,-0.029222292141639628
-0.019266413801233284,-0.019541053916327655,-0.03502777690300718
-0.018719516447163187,-0.018187063687946647,-0.036754838220076635
-0.017627415218157694,-0.016081483408925124,-0.033512780646560714
-0.018233888113172725,-0.016652958947815932,-0.029979737519170158
-0.020628900529118255,-0.019825696654152125,-0.030103612516541034
-0.022562608137377538,-0.019594974219216965,-0.03169561387039721
-0.02310877971467562,-0.01700678330962546,-0.03012296474480536
-0.024802122425171547,-0.014565111086994875,-0.025256118533434346
-0.027685542590916157,-0.012244344361533877,-0.02181180207116995
-0.02814423896779772,-0.01078805416909745,-0.02165549994970206
-0.024042630684562027,-0.010300783287675586,-0.02368659625062719
-0.020996969396946952,-0.012084209629392717,-0.02616062920424156
-0.021987001673551276,-0.01227184202434728,-0.027873646104126237
-0.02371066511841491,-0.005974995474389289,-0.02754897104750853
-0.02424229751341045,-0.0005560384579439415,-0.025617498977226205
-0.023368324036709964,0.001554468667563924,-0.023750213586026803
-0.022031046682968736,0.0032378725336457137,-0.022537697077495977
-0.020633277017623186,0.003710394139488926,-0.02316438258276321
-0.01858346877270378,0.0018053833628073335,-0.023663582396693528
-0.01684607377683278,0.0006858446681690111,-0.024771836251602508
-0.015294093827833422,0.0012266689282114385,-0.023815220629330724
-0.012369538126222324,7.114037714472943e-05,-0.01924127536767628
-0.00926465872908011,-0.0020455570393096423,-0.016769474314060062
-0.010189605745836161,-0.002509352270863019,-0.019022805645363405
-0.015042443919810466,-0.0035661605579662137,-0.023821288777980953
-0.019479008187772706,-0.0073905075623770244,-0.02626231434987858
-0.019914057702408172,-0.01225275445904117,-0.026255944248987362
-0.018293840184924193,-0.012104692359571345,-0.023160344426287338
-0.020006027625640854,-0.010542677955527324,-0.021333451513783075
-0.02165116347896401,-0.0074671652328106575,-0.01765993147273548
-0.02193251384596806,-0.0009705904631118756,-0.012604794392245822
-0.02296603997820057,0.005903227702219738,-0.012263091775821522
-0.024392656996496953,0.009697446330392268,-0.015400544725707732
-0.026475776394363493,0.01076332318916684,-0.017167360056191683
-0.029108798116794787,0.010381074389442801,-0.018263017409481108
-0.03028018727491144,0.008308405085699633,-0.019801325834123418
-0.029861275834264234,0.005206900368648348,-0.020838842829107307
-0.029707200155826285,0.002252720832984778,-0.02325203240616247
-0.02955661875603255,-1.78126295935499e-05,-0.027706159016815946
-0.028870188543805853,-0.0021740595457231393,-0.028532371288747527
-0.02993481029989198,-0.00523599783264217,-0.02511264756321907
-0.030816812795819715,-0.010928780284302775,-0.02737747854553163
-0.03171883145114407,-0.01809832792787347,-0.03633740561781451
-0.0327001980622299,-0.022001677280059084,-0.04277396874385886
-0.03167108297930099,-0.0195541579159908,-0.039442413253709674
-0.02982529258588329,-0.014756537893845234,-0.033137785067083314
-0.028182661480968818,-0.01438851177226752,-0.03159621701342985
-0.026902036552201025,-0.016728632544982247,-0.033075564715545624
-0.025683269996079616,-0.016066836906247772,-0.034363518352620304
-0.025344306777697057,-0.009572436283633579,-0.03398991248104721
-0.025618546715122648,-0.0001888630833946081,-0.028299386030994356
-0.025086570531129837,0.008359703315363731,-0.017486974684288725
-0.02436351314827334,0.011495879334688652,-0.011767138857976533
-0.024733995815040544,0.009536796824249905,-0.016474286894663237
-0.02638483238115441,0.008631963282823563,-0.02266520277771633
-0.026351093765697442,0.008984505257103592,-0.025266786906286143
-0.02419279371679295,0.007198575531219831,-0.024896860850276425
-0.021547686628764495,0.004202557192911627,-0.025771287255338393
-0.019701035853358917,0.001503009002590261,-0.028786058464902453
-0.019303810404380783,0.000583280552746146,-0.02767178011708893
-0.018744289263850078,-0.000349376819031022,-0.02316778954991605
-0.017454303815611638,-0.002334331384190591,-0.01907236764964182
-0.016715341189410537,-0.004786034423887031,-0.017970924091059715
-0.016098643754958175,-0.009183391739497893,-0.02093919101753272
-0.016227308151428588,-0.012666198927036021,-0.024830442271195352
-0.01783330662874505,-0.011391281077521853,-0.026573952709441073
-0.019633172996691428,-0.0062229810282588005,-0.023860426153987646
-0.020188375856378116,-0.0001429935707619734,-0.02021179170696996
-0.018634671505424194,0.004871976670983713,-0.019026336303795688
-0.019222250557504594,0.006473006123997038,-0.01828270251280628
-0.022205591449164785,0.004098869339941302,-0.018605554942041636
-0.024707356715225615,0.0007947008953124168,-0.020154979210929014
-0.025643556000432,-0.002713619323913008,-0.022927430109120905
-0.026881969461101107,-0.00694835398462601,-0.025792984160943888
-0.027300528017804027,-0.009787578164832667,-0.02872118420782499
-0.025907205781550147,-0.012525173588073812,-0.03131463017780334
-0.023859158318373375,-0.014341867426992394,-0.03083514457102865
-0.02251007936138194,-0.012286281162232626,-0.027366775611881167
-0.02173070424760226,-0.009217180377163459,-0.027290247089695185
-0.023098076781025156,-0.006639663297391962,-0.028963429940631613
-0.024738439606153406,-0.0034319775750191184,-0.02479659997334238
-0.026547617380856536,-0.0008061568337325298,-0.018366979929851368
-0.02810887963278219,-0.0007172209848249622,-0.018559077943791635
-0.027390018658479676,-0.0012884667057733168,-0.02376723386987578
-0.026691372113418765,0.0005535969762604509,-0.028037200536346063
-0.027563870389712974,0.0019459587292658398,-0.033299351343885064
-0.028772557925549336,0.0007198520961537724,-0.04149053347646259
-0.02901632797147613,-0.002732344000833109,-0.046627861593151465
-0.027715837859432213,-0.006217703685251763,-0.04784765769727528
-0.02690067412913777,-0.00698335543347639,-0.04547381104202941
-0.026470930606592447,-0.004409839675645344,-0.039544462197227404
-0.025776551410672255,-0.0024056350866885623,-0.03281370663898997
-0.025375589757459238,-0.0034213480830658227,-0.02833291728165932
-0.025339893909404054,-0.0068717104113602545,-0.024672699510119855
-0.025734383598319255,-0.008390103175770491,-0.020663090253947303
-0.02629657683428377,-0.00572024509892799,-0.015582088963128626
-0.025652305339463055,-0.0023750676518830005,-0.009848878107732162
-0.02359193422307726,-0.00042424687762832036,-0.008049924872466363
-0.021270636352710426,-0.00020448452175969578,-0.011375876056263223
-0.020229692381690256,-0.0014317097338789608,-0.013067211511952337
-0.018934242689283565,-0.001316489374403318,-0.009656222573539708
-0.015705694750067778,0.001875264956652245,-0.002780387148959562
-0.013044736078882124,0.0037493821309908526,0.00216948137676809
-0.012291154234844726,0.00014457755526109395,-0.00026954208465213014
-0.0138929526656284,-0.006904165275045671,-0.008610899385530502
-0.015752792023704387,-0.012543259799713269,-0.01663300827203784
-0.015146397345233709,-0.011649343832687009,-0.018601107512949966
-0.014893427760398481,-0.0026053057808894664,-0.01733621502353344
-0.0140546990223811,0.0047510225158475805,-0.018968488802784123
-0.014954629477870185,0.0065434264797659125,-0.019807450371445157
-0.015294173863367178,0.007112246294127544,-0.017508073142380454
-0.015929355868138373,0.0093340095190797,-0.01816645271901507
-0.017249671145691536,0.010851476872630883,-0.021544043192989193
-0.02014391793636605,0.010838369234988932,-0.02476907138770912
-0.02397232128714677,0.00883316715771798,-0.025619567168178037
-0.02756127832981292,0.006388906513166148,-0.017631309674470685
-0.029660526706720702,0.008887584044714458,-0.004671261194744147
-0.030940187571104616,0.015182205970631912,0.0020018769646412693
-0.03194944292772561,0.018622276911628433,0.001846837903940468
-0.033437223464716226,0.015247357623593416,-0.00032723318099669996
-0.033757169148884714,0.00891169565875316,-0.00436222171629197
-0.033606895158300176,0.001289964188799786,-0.012915946172142867
-0.03212776209693402,-0.007891587301855907,-0.028132231818744913
-0.03132867641397752,-0.022955715394346043,-0.04481369978748262
-0.031242208933690563,-0.038104084524093196,-0.06014108657836914
-0.030764440452912822,-0.04837697633774951,-0.06941911851754412
-0.02873099219868891,-0.051239134336356074,-0.06851941725471988
-0.025528473997837864,-0.04490239007282071,-0.06096685683587566
-0.021417874449980445,-0.032390682463301346,-0.05436644278233871
-0.017217054846696556,-0.020214769392623566,-0.05002251418773085
-0.015390547559945844,-0.014553195796906948,-0.046616689360234886
-0.01712769335426856,-0.014714097233081702,-0.04418108073878102
-0.0203269264602568,-0.015390285625471734,-0.040838978748070076
-0.02223671617684886,-0.013828153896611184,-0.03657565321191214
-0.0230668065341888,-0.00978058233158663,-0.03667457349365577
-0.024571261747041717,-0.006136554929980775,-0.044693129893857986
-0.026800176783581264,-0.005788341240986483,-0.05842804239364341
-0.027474472517496906,-0.0070500873334822245,-0.07131006714189425
-0.028496000595623627,-0.007668347279832233,-0.07827101944712922
-0.027866586606251076,-0.008633955985715147,-0.07375061250058934
-0.0255005852523027,-0.01014029658108484,-0.05536987737286836
-0.023315158614423126,-0.010014604413299821,-0.02807001510518603
-0.02267819036205765,-0.007464594546036096,-0.0011405891200411133
-0.022641208488494158,-0.004087378783879103,0.018157181330025196
-0.02046773261099588,-0.0031897225198918022,0.027218207833357155
-0.01821515616029501,-0.0046125664994178806,0.026261290258844383
-0.019526922187651508,-0.004563374659483088,0.017477752408012748
-0.022299625925370492,-0.0010151298965865863,0.007906754944997374
-0.023301583496504463,0.0016074357063189382,0.00428027169618872
-0.02256773950648494,0.0027023731945519103,0.00047247488055290887
-0.02243509516119957,0.0014059937711863313,-0.0045486576709663495
-0.024002918507903814,-0.00036681529991255957,-0.00793907111074077
-0.02631753886817023,-0.0005895850563319982,-0.009151739504886791
-0.027043071895604953,0.0001265586604404234,-0.01000441079668235
-0.025840645321295597,0.0012861272580266814,-0.012142930245317984
-0.024692848455742933,0.0031015267722978024,-0.015569185052299872
-0.025527982870698906,0.004755790087074274,-0.018300321244169027
-0.026742702175397426,0.006068150923965732,-0.021559779270319268
-0.026225237888866104,0.006518756890727673,-0.02550267345213797
-0.025698234821902588,0.007730948709649965,-0.02721979035413824
-0.026344856451032683,0.00902387091628043,-0.027689875423675403
-0.026359703042544425,0.007196578280854737,-0.03013963214471005
-0.027187057639821433,0.006582049536518753,-0.032960142561933026
-0.02850236887752544,0.006758093604730675,-0.03143804133287631
-0.02900573417718988,0.006168764230096713,-0.028409551305230707
-0.027738697099266574,0.005985465122648748,-0.027407510060584173
-0.026605621314956807,0.005059144314145669,-0.026655498004402034
-0.0266706647380488,0.0018482490986571065,-0.025116743927355856
-0.025590879886294715,-0.0026565217012830544,-0.024717483029235154
-0.0231822814384941,-0.005166207756701624,-0.02637025318108499
-0.022104166419012472,-0.00518437582286424,-0.028965851015527733
-0.021712277884944342,-0.006596608272957383,-0.031263920391211286
-0.02209482954640407,-0.008192405402951408,-0.03230318907299079
-0.023071226678439416,-0.007154576451284811,-0.031148549169301987
-0.023848802811698988,-0.00570731799598434,-0.025037701561814174
-0.02424766353215091,-0.0034095512546628015,-0.020678629880421795
-0.023523996787844226,-0.0017693566860543797,-0.019027647795155644
-0.0254117876465898,-0.000975500256572559,-0.017315584045718424
-0.029805052690790035,0.0009304288823841489,-0.01246964620804647
-0.03200415085302666,0.0027175681225344306,-0.00912815175979631
-0.029922171961516142,0.002988258756886353,-0.01255388451681938
-0.027145480999024585,0.0020819677502004197,-0.02111750654876232
-0.026370558771304786,0.001185501446343551,-0.026888652428169735
-0.02677997326827608,0.0010591628551992471,-0.02522600334486924
-0.02654735726537183,0.0025404547159268986,-0.025005363568197936
-0.023335673176916316,0.0011145419875902007,-0.026697649445850402
-0.019401248209760524,-0.003643781155915349,-0.025551744329277426
-0.01572537985339295,-0.005815319127577823,-0.024682198272785172
-0.013043822946201544,-0.0026894110760622425,-0.027841675546369515
-0.011289052963547874,0.0017634641835684306,-0.03172262222506106
-0.011853190699184779,0.0001950890293755947,-0.0332784402417019
-0.012500924640335143,-0.005449900982057443,-0.034168388083344325
-0.013771600606560241,-0.009558803867548704,-0.03826972533715889
-0.015575946235912852,-0.01003416400635615,-0.043785876187030226
-0.018726968846749514,-0.007699006346228998,-0.04594251367961988
-0.02256682637380436,-0.004839314897253644,-0.045400738599710166
-0.022120249923318624,-0.003434512564126635,-0.04623533459380269
-0.017672049580141902,-0.00613427982898429,-0.04688720582635142
-0.015768833691254258,-0.010378294973634183,-0.04271795478416607
-0.016597788999206387,-0.00925853873923188,-0.030328670618473552
-0.018809325410984457,-0.003775336608669022,-0.014421849300561007
-0.02046681402134709,0.0004940309850098856,-0.0015207782553261495
-0.02191229214076884,0.0017079646568163298,0.006987561391724739
-0.02310990748810582,0.0020082879927940667,0.016119513020385057
-0.023989949113456532,0.0015372006600955501,0.022571239242097363
-0.024448223484796472,-0.0016051673128458788,0.0179492162715178
-0.02434658927086275,-0.00725514792065951,0.006275185569393216
-0.024329759980901144,-0.012418045116646681,-0.005171350494492799
-0.024346452846657485,-0.014788616681471467,-0.017413196474080905
-0.02452801345498301,-0.016734242308302782,-0.028872364055132493
-0.023902177417767234,-0.019070164853474125,-0.03720121821970679
-0.021631591152981855,-0.018945171177620068,-0.042288698750780895
-0.020577477698680013,-0.016171514289453626,-0.043725071009248495
-0.02210589991591405,-0.012341344699962065,-0.04082689338247292
-0.02426756873319391,-0.008202919161703903,-0.03787543755606748
-0.027033207516069524,-0.00598018777964171,-0.0388710577681195
-0.027596322979661636,-0.0041232046896766406,-0.04188935417914763
-0.026369127226644196,-0.003278106532889069,-0.042288513213861734
-0.024416405722149648,-0.002097873675666051,-0.03993001882918179
-0.021982132238917984,-0.0017331060462311143,-0.03592319626477547
-0.020384604795253836,-0.000559408192657429,-0.03188582195434719
-0.019963095837738365,0.002207852048741188,-0.028603097234736197
-0.020356414097477682,0.0035990462947665947,-0.024745297196204774
-0.020319203031249344,0.0016309847978845937,-0.021785930584883317
-0.020387071344885044,0.0007350300279540534,-0.02075255906675011
-0.02189850238210056,0.0035738353290071245,-0.019338125639478676
-0.024615670554339886,0.007358170023508137,-0.015552779586869292
-0.025313516744063236,0.011919508324353956,-0.0101255536719691
-0.02334598138986621,0.0149364777826122,-0.004717124284070451
-0.02205320561188273,0.015993136912584305,-0.0010421085789857898
-0.02305062662344426,0.016715894162189215,-0.0021796431610709988
-0.022915764930075966,0.017509613826405257,-0.007255012860696297
-0.021644098524120636,0.01839410288084764,-0.012969137060281355
-0.02333873817406129,0.018012065993389115,-0.01707766205072403
-0.026431418518768623,0.01665751369728241,-0.018246719264425337
-0.02787123048619833,0.0143728548209765,-0.019167426216881722
-0.028771086363121867,0.008231252650148235,-0.023882084860815667
-0.028695838409475982,-0.0007097638103914505,-0.031699859391665086
-0.026684027034207247,-0.011994178748864215,-0.03887927596224472
-0.02273581594636198,-0.02639665217429865,-0.042630334064597264
-0.019017947124666534,-0.03841839134111069,-0.04477922266232781
-0.017331440176349133,-0.04300703221815638,-0.04659170372178778
-0.015766157957841642,-0.04349543814896606,-0.04846544470638037
-0.015263134628185071,-0.044571304897544906,-0.04720759534393437
-0.0170250659721205,-0.048023728595580906,-0.04557000647764653
-0.019524724848452024,-0.0467975769424811,-0.04172122135059908
-0.022438058294937946,-0.04046024696435779,-0.03832567745121196
-0.024402475901297294,-0.03371954517206177,-0.03999710679636337
-0.025178247597068548,-0.027731568479794078,-0.04187452941550873
-0.02626618334033992,-0.020706309442175552,-0.038898080674698576
-0.02808463432302233,-0.012771703950420488,-0.032210402423515916
-0.02869564741558861,-0.005906451860937523,-0.026646705009625293
-0.02922878775279969,-0.0006735061219842464,-0.023131893613026477
-0.029653483579750173,0.0036087647004023893,-0.023627613700227812
-0.028476915758801624,0.005757192866440164,-0.02430611311865505
-0.027353113182471134,0.006201722953846911,-0.0226611336984206
-0.02663511986611411,0.005884800884814467,-0.02189663609897252
-0.025743724108906463,0.005765588866779581,-0.02254965147585608
-0.02514811603759881,0.005215337296249345,-0.019766024706768803
-0.024903052690206096,0.005983796199870994,-0.013809623851557262
-0.024681759896338917,0.00839170297695091,-0.010034229489974678
-0.024665985620231368,0.008628418072476052,-0.012014247658953536
-0.02364150532230269,0.005644888005917892,-0.017133210349129513
-0.020868585124844685,0.0013353565009310842,-0.022574984541279264
-0.02053556454484351,0.0002853321348084137,-0.021728315914515406
-0.022091770006227307,0.0032211485176958377,-0.012494892871472985
-0.02154506182705518,0.006253082574403379,-0.004825035375688458
-0.018335435015615076,0.007746799383312464,-0.005169862106413348
-0.018441714928485453,0.00806090611149557,-0.011019116755051073
-0.021023370209150016,0.006127119377197232,-0.017284390196437016
-0.02241897163912654,0.0038351936382241547,-0.022152644305606373
-0.023065542336553335,0.0021768128135590814,-0.023465894628316164
-0.022405647541745566,0.0018405779655950028,-0.023246817363542505
-0.021760015442851,5.6552867278014674e-05,-0.024330878659384325
-0.022672746126772836,-0.0020496122488111723,-0.0279052783298539
-0.023662043531658128,-0.0026973063995683333,-0.028322547223069705
-0.023764256184222177,-0.0021414643924799748,-0.026800391424330883
-0.02530357778596226,-0.0007983642262843205,-0.028142969313194044
-0.026544308639131486,0.0003089855340476788,-0.03379502595635131
-0.025901910703396425,0.0008883872624210198,-0.03784139335039072
-0.02639661033754237,-0.0004105149571387301,-0.03672553793876432
-0.028840637241955847,-0.0022303752302832436,-0.03332509731990285
-0.03038515023945365,-0.0038489997677970678,-0.03105127325397916
-0.028457065127440728,-0.004212569365336094,-0.02748684346443042
-0.025230610845028423,-0.001932552322614356,-0.024521239538444206
-0.0250564899033634,-0.00032452487630507676,-0.023562219212180935
-0.027916157705476508,0.0010834476142917993,-0.022513555450132117
-0.0314011522277724,0.0037111622077645734,-0.02136202783731278
-0.03403678783797659,0.005804207376058912,-0.02197779576817993
-0.03388685581739992,0.007319049018406076,-0.02165197474823799
-0.03241340527893044,0.00875755722518079,-0.021504471078515053
-0.0301601266983198,0.008556553439120762,-0.02077174576697871
-0.028878295779577456,0.005877120202057995,-0.019059010810451582
-0.029109585739206523,0.002980971885335748,-0.01836804221966304
-0.028168153221486136,0.0013339814586288412,-0.017691185348667204
-0.02512717037461698,-0.0007659229481760121,-0.015056516531330999
-0.02228013181593269,-0.003264573933847714,-0.013310876965988427
-0.020980596673325635,-0.00598710266785929,-0.015426221580128185
-0.02054829201370012,-0.01079046069207834,-0.020646084522013552
-0.01768341098795645,-0.018359427485847846,-0.029201150027802214
-0.014271635336626787,-0.027054660677094944,-0.03874477988574654
-0.012857393812737428,-0.0343359170074109,-0.0440268158854451
-0.013157961802789941,-0.034425935155013576,-0.04351793904788792
-0.013596693861472886,-0.025043735149665736,-0.03954031490138732
-0.013173851584724616,-0.013627022781292908,-0.0336288649123162
-0.0138657132993103,-0.007485061360057443,-0.026688643629313447
-0.017389464119332843,-0.004809933216165518,-0.017245760318473913
-0.020581150238285773,0.0003314143270927161,-0.008266915756394155
-0.02067206150968559,0.00537349978912971,-0.00563797175345826
-0.02030954055953771,0.0075419284257804975,-0.006555368145200191
-0.022167292627273127,0.009081328244064935,-0.006474983365478693
-0.024404842406511307,0.008829787475406192,-0.010962929991364945
-0.023504249838879332,0.005370859980757814,-0.018999320673174225
-0.02252158083138056,-0.0008074112542999501,-0.027311643862049095
-0.022870846805744804,-0.006640988885919796,-0.031276329536922276
-0.022363539756042883,-0.008718102435523178,-0.030204457289073616
-0.02207414036092814,-0.008539949703845195,-0.028871467293356545
-0.022355061446432956,-0.00971974714047974,-0.03141948036500253
-0.022379732399713248,-0.015304072803701274,-0.03607407779782079
-0.022572026864509098,-0.01962203168659471,-0.03698639557114802
-0.023613283701706678,-0.01702943154668901,-0.028577724151546136
-0.025620505766710266,-0.010338889296690468,-0.015081205674505327
-0.026496172722545452,-0.004072051069670124,-0.008420078302151524
-0.02601158121251501,0.0007139983040360676,-0.011355437891324982
-0.025866822397802025,0.0022327712940750644,-0.014728158930665813
-0.025985707907238975,0.0013515493719751248,-0.01789000816643238
-0.025329090931336395,0.002621947032821481,-0.02261064037156757
-0.023615360987605527,0.0036278022434999,-0.027630298063741066
-0.023909575247671455,0.0030636902010883205,-0.031028379453346133
-0.025332839868497103,0.003245371999582858,-0.03311257387395017
-0.025679437385406345,0.002681485739230993,-0.03528018351062201
-0.026313959097024053,-0.0009013156159198843,-0.03804616426350549
-0.02715806294872891,-0.0043932996049989015,-0.04263935625203885
-0.028011141694150865,-0.004304234607843682,-0.04337111386121251
-0.028910886612720788,-0.0003124045520053187,-0.03429952266742475
-0.026563662686385214,0.006525758180941921,-0.020017943825223483
-0.0240004992519971,0.010918850421148818,-0.010247396858176216
-0.024413027858827263,0.010443408427818213,-0.006936556928849313
-0.025687799279694445,0.009057727766048629,-0.0076199639806873165
-0.02798968125716783,0.010852914783754386,-0.0073570467975514475
-0.028938375180587173,0.015957213690853678,-0.00496788879900123
-0.028146094336989336,0.020206118279020302,-0.008049521966313478
-0.026523435735725798,0.019174412955180742,-0.017004040273604915
-0.025161107259918936,0.01545501254440751,-0.022591724700760096
-0.024277194825117476,0.012092364158888813,-0.020219569705659524
-0.023779497496434487,0.008555097338103224,-0.019297152903163806
-0.0229233755817404,0.0036806977732339874,-0.02377196869929321
-0.02184089862566907,-0.0032544414807489375,-0.029951737815281376
-0.0218000295717502,-0.01106762374547543,-0.03403181108296849
-0.02310983654751908,-0.019669505491037853,-0.03698737782542594
-0.02475769906595815,-0.0272102279268438,-0.04019145853817463
-0.027184813006897457,-0.03336438021506183,-0.042406158172525465
-0.02825696901709307,-0.03931470200768672,-0.043800449930131435
-0.026073024855577387,-0.04391970651340671,-0.04750055813929066
-0.022332611479214393,-0.0447509519290179,-0.052083614718867466
-0.020309416868258268,-0.03917181311408058,-0.04933973468723707
-0.021597830709652044,-0.027846457669511437,-0.038935722841415554
-0.024666262106620707,-0.01581272590556182,-0.02715819573495537
-0.02749214218056295,-0.006642020707658958,-0.018866492609959096
-0.028014126655762084,-0.0018014517308984068,-0.015909083231235854
-0.027211532142246142,-0.001345941768704506,-0.017170659702969715
-0.027165622668690048,-0.0026646741844160715,-0.017770636986824684
-0.026109071768587455,-0.0036163633012620267,-0.017324095097137615
-0.02500866867194418,-0.007551270300609758,-0.017290311006945558
-0.024168368327082135,-0.013251005839265417,-0.01802956649044063
-0.021893862140132114,-0.01822215381253045,-0.024038612536969595
-0.021462694348883815,-0.022157344574225135,-0.029538688977481797
-0.02213807965745218,-0.02252643389510922,-0.02972379297716543
-0.022489686671178788,-0.01599376992089674,-0.026747935407911427
-0.022568228814634494,-0.008691436960361898,-0.025972323783207685
-0.02352417322981637,-0.004480185452848673,-0.02583770765340887
-0.025133113012998365,-0.002106815145452856,-0.02415098606434185
-0.025902296329149976,-0.0014455301879934268,-0.02155198308173567
-0.025275692678405903,-0.0016433896234957501,-0.01791373870219104
-0.023915890778880566,-0.0001716446860200449,-0.015591032934025861
-0.020844141545239836,0.0034329507343500154,-0.018092850950779393
-0.018374274077359587,0.007095501132425852,-0.024273040253319778
-0.02068782487185672,0.008384807188122068,-0.0263963174802484
-0.021878815459785983,0.008492979759466834,-0.02282305467815604
-0.020672843675129116,0.009778595085663255,-0.019414330381550826
-0.019132368834107183,0.01238551067217486,-0.016182984836632386
-0.01829525535868015,0.012418707228789572,-0.01381577840220416
-0.017763404684956186,0.011277629710093606,-0.013736688742937986
-0.01892245199996978,0.00992661080090329,-0.014168026609695517
-0.0201626662601484,0.007378589543804992,-0.015368510503321886
-0.019886081645381637,0.004816486125491792,-0.015372761481557973
-0.018463964806869626,0.0043178379200981,-0.010941831533273216
-0.018085214833263308,0.005010448148823343,-0.0058391515267430805
-0.02112305082846433,0.005066543508291943,-0.008144994353642687
-0.024443746951874346,0.0014694552419314277,-0.017559445041115396
-0.024846316591720097,-0.005351674644771265,-0.02634372140164487
-0.022899272153154016,-0.007625635134900222,-0.02759915696515236
-0.02175329063902609,-0.0038037662761780666,-0.02655204116308596
-0.022394664483726956,-0.0015889551150394254,-0.02813544597302098
-0.02216711982327979,-0.0009004922389976855,-0.029313894629012793
-0.020176390535198152,0.0031281001611205284,-0.027253563530393876
-0.019098502889391966,0.005992456863168627,-0.024009705157368444
-0.02059482540062163,0.0044020393943355884,-0.02154351932404097
-0.022249652829486877,0.001806645855140232,-0.023289883756660856
-0.022657695808447897,-0.0027329681415722007,-0.030138877264107578
-0.02105185376422014,-0.008743103535380214,-0.03868152998620644
-0.018700784494285472,-0.011610899491643067,-0.042975094402208924
-0.018147469745599665,-0.0077511140261776745,-0.037973666621837765
-0.01989740485441871,-0.003023094905074686,-0.0303226424875902
-0.022569895008928142,-0.0022826864096714417,-0.02908238093368709
-0.024853707145666704,-0.005252143637335394,-0.030306387998280115
-0.02629087794048246,-0.006925590696482686,-0.029370954507612623
-0.025887060473905876,-0.006336943442875054,-0.027735599360312335
-0.025680770704639144,-0.006208727882039966,-0.02774782115011476
-0.026424069801578298,-0.006075926648918539,-0.028193904654472135
-0.027346039132680744,-0.004585489477904048,-0.025120174541370943
-0.027601812689681537,-0.0015194351590253063,-0.01935248656081967
-0.02573836172814481,0.0010984289247062407,-0.017055313946912065
-0.022317890397971496,0.0037272875488270074,-0.021005380403948948
-0.021574576749117114,0.006747817678842694,-0.025136207113973796
-0.024645976736792363,0.01009172683552606,-0.025707364329718985
-0.027815636713057756,0.01367844561173115,-0.024131670215865597
-0.029371089112828486,0.013600480087916367,-0.02433241570543032
-0.030961044103605673,0.009195406164508313,-0.026684087060857564
-0.02981137549795676,0.004023711426270893,-0.03693217149702832
-0.029552304113167338,0.00212612349059782,-0.048796347982715815
-0.029871296646888368,0.0020703141672129277,-0.05130613863002509
-0.0286013546428876,-0.0011556109029697836,-0.048011977924034
-0.02823890099534765,-0.0073915607572416775,-0.04561420428217389
-0.02921742088801693,-0.012134072676417418,-0.041776431316975504
-0.028624683181988075,-0.01438931667507859,-0.030773418984608725
-0.027076479454990476,-0.014938512322260067,-0.017094886061386205
-0.026197556508122943,-0.01592926128068939,-0.005977165074000368
-0.025738072508829646,-0.01846318627940491,0.0007029265702840348
-0.02434893394820392,-0.018674192688195035,0.004361053015600191
-0.022389524019672535,-0.01669414632488042,0.005667258847097401
-0.022345631805364974,-0.014893795196257997,0.003944525815313682
-0.022692443963023834,-0.013466123164107557,-0.0037450693071150454
-0.021413698050309904,-0.0119289697977365,-0.012463257007766515
-0.020391114958329126,-0.009305380444857292,-0.019919665646739304
-0.021430210836115293,-0.008112330760923214,-0.024337152353837155
-0.02339606362511404,-0.009586570740793832,-0.027174664865015075
-0.023043745386530645,-0.01351079572486924,-0.0314679418806918
-0.020495563148870133,-0.01709763273538556,-0.0350354312104173
-0.019518773115123622,-0.019768520360230468,-0.038827554817544296
-0.019750727005884983,-0.020883713659713976,-0.041393843275727704
-0.019031675037695095,-0.019678605895023793,-0.039195296267280355
-0.01864887963165529,-0.015598914615111426,-0.03458401988609694
-0.02049597242148593,-0.008117216566461138,-0.03157957689836621
-0.021146583094378002,-0.0015207476735668024,-0.026034133043140173
-0.020352785213617608,0.000387706279525446,-0.018687444025999866
-0.021177134840399958,0.0008784815577200789,-0.012440024875104427
-0.023480008167098276,-0.0002707446640215494,-0.009640520147513598
-0.023307095034397207,-0.002146046426787507,-0.011488438758533448
-0.02091550049954094,-0.0029730781534453854,-0.01786520988389384
-0.019931792849092744,-0.003044332743229461,-0.02351443254156038
-0.021179970644880086,-0.001983079755518702,-0.025699951947899535
-0.022777498088544235,0.00020856124649526464,-0.026949841412715614
-0.02433825829939451,0.0015143092468861141,-0.027134170522913337
-0.02521094575058669,0.0022932924821361667,-0.02553973718022462
-0.02425880666123703,0.0041581311052141245,-0.02405028135399334
-0.022509881091536954,0.00497698420076631,-0.026660525691113435
-0.023613072698935866,0.0055206714932865,-0.03153828583890572
-0.025379194994457066,0.008002761205716524,-0.03336835652589798
-0.026426007025293075,0.01131737280957168,-0.0319494865834713
-0.026960262403008528,0.011763207112380769,-0.0265835587924812
-0.026907162464340217,0.01138287643698277,-0.014310175174614415
-0.027411713745095767,0.013252210010250565,0.0015878512158451485
-0.0262427292909706,0.01636350316402968,0.008498321221850347
-0.0234706330957124,0.01795825664885342,0.003959831701649819
-0.021248588382150047,0.016661306290188804,-0.006589662916667294
-0.02106256397382822,0.01476537454436766,-0.013994364053360187
-0.022497786630992778,0.014738876416231506,-0.016543728634133004
-0.024033624868025072,0.014548515537171625,-0.018912480300059542
-0.02320386192877777,0.01172835527540883,-0.023026703274808824
-0.019426663129706867,0.007523201020376291,-0.028325859602773562
-0.016288404367514886,0.0018622903326104279,-0.034387558116577566
-0.015036114746180829,-0.0051779293244180735,-0.04158752199145965
-0.01637729656067677,-0.009376675734529272,-0.04847572563448921
-0.017139669580501504,-0.009496543498244137,-0.054843552788952366
-0.01813568451325409,-0.006195402875164291,-0.05538149707717821
-0.01946329211932607,-0.005086081273475429,-0.04821713446290232
-0.020010147636639886,-0.008049960342759732,-0.039974831452127546
-0.019294362573418766,-0.013691294952877797,-0.035736342397285625
-0.017874554032459855,-0.023555618099635467,-0.03715411003213376
-0.017121965356636792,-0.03884635225404054,-0.04518956120591611
-0.018852841094485484,-0.05146697367308661,-0.055199157941387966
-0.02179189323214814,-0.05459469684865326,-0.0589478513575159
-0.023514146960224025,-0.050706305046333,-0.05478401726577431
-0.02479628165019676,-0.04405631989357062,-0.046964731154730543
-0.02771612344076857,-0.035755918361246586,-0.03748371091205627
-0.028448208468034863,-0.02569950265751686,-0.029056467610644177
-0.02731968015723396,-0.017737758753355592,-0.022463011191575788
-0.025170007575070485,-0.01091783542506164,-0.014880388334859163
-0.023995982701308094,-0.004878579147771234,-0.00544324620932457
-0.025222316253348254,0.0020093091279704822,0.002402208565399633
-0.026977815650752746,0.006755331469321391,0.004564014943753136
-0.028035094146616757,0.0070506362135347445,0.0012559213473650743
-0.027816098736366257,0.0037487891404452967,-0.005047057584306458
-0.029345803341129795,-5.912546185982137e-05,-0.012267724741832353
-0.030305152904475108,-0.0025664483018772444,-0.01894967681437265
-0.028672569897025824,-0.003453834779065801,-0.02430857057333924
-0.026193241865257733,-0.0024375067368964665,-0.02470182880642824
-0.025178975192829967,-0.0011795127647928894,-0.021661899154423736
-0.02493437386874575,-0.0018142966382583836,-0.019946879547205754
-0.02400679477432277,-0.0012713992418866837,-0.01936950684466865
-0.023923841581563465,0.0005056793384028424,-0.017236616258742288
-0.023473652618122287,0.0017211051499543828,-0.01389138287777314
-0.023486785721615888,0.002348223688386497,-0.007111422291927738
-0.02493487045285292,0.005707157924916828,0.0025336989892821293
-0.02567797309893649,0.01184829216072103,0.008779827112448402
-0.025683855710667558,0.01598528069735039,0.008057836566877086
-0.02679246426851023,0.014952982382965274,0.0009729477596920333
-0.027240717827226035,0.012063938811479602,-0.008543042895325925
-0.02732238863245584,0.01073792009265162,-0.015276376871042885
-0.027810967367258854,0.009378483809996396,-0.018962164176627994
-0.027697875339072198,0.006981127171457047,-0.025422967155463994
-0.02765523640846368,0.004096324119018391,-0.03256141280871816
-0.02644693449838087,0.0013359211834540474,-0.037195131881162524
-0.02597367529233452,-0.00042109422793146223,-0.03767611269722693
-0.026950790925184265,-0.001718310954856861,-0.034536817111074924
-0.029145336156943813,-0.0023014770249574212,-0.029391356292762794
-0.03104881034232676,-0.0021750111045548692,-0.024786884750938043
-0.029767605155939236,-0.0012231979553689598,-0.02171375490434002
-0.027249319828115404,0.001231775968335569,-0.018446708054398187
-0.026248933863826096,0.0024496969217580045,-0.016535932445549406
-0.02700591358006932,0.0020527868400677107,-0.019099723431281745
-0.028923508580191992,0.0010596058928058483,-0.02500174923625309
-0.029659106075996533,0.0008435688982899592,-0.029487338906619698
-0.030019118639756925,0.0011445190466474742,-0.032375010050600395
-0.0310489340336062,0.001514683390269056,-0.0350706723111216
-0.02838684849848505,0.00046033036937842553,-0.0347249697369989
-0.026396110115456395,-0.002790651933537447,-0.0368508517567534
-0.026915642592939548,-0.006859519999125041,-0.03941680915886536
-0.027093792596133426,-0.009250424227502663,-0.03911918611265719
-0.024700641006347723,-0.012766885447490495,-0.04033069853903726
-0.022096459360909648,-0.0178726277226815,-0.04451542554306798
-0.021682797523681074,-0.02013904304476455,-0.04546656782622449
-0.023603734007338062,-0.016009051250875928,-0.0394153903471306
-0.024515540644642897,-0.009468692951486446,-0.03057674621231854
-0.023382091967505403,-0.005814366886625066,-0.024750341253820807
-0.023274216800928116,-0.0057488241509418,-0.023811680875951424
-0.024662793293828145,-0.007658851245651022,-0.02620375744299963
-0.025012941478053108,-0.008216158676077612,-0.02895144461945165
-0.022932103092898615,-0.007285750598384766,-0.02860980930563528
-0.021213078071014024,-0.0045804881665389985,-0.02636693352542352
-0.019933891962864436,-0.003208359430573182,-0.026523543056100607
-0.017958413081942126,-0.0013374861964621232,-0.027371268515707925
-0.01694594175205566,0.0006207709475347656,-0.026567568056634627
-0.01730006442812737,0.0021827220280101756,-0.023662401872570626
-0.017704171114019118,0.003921113147953292,-0.02027203117904719
-0.016609959857305512,0.0033918308872671332,-0.01825456456572283
-0.016085479728644714,0.0003568437136891589,-0.017673737602308393
-0.018289692889084108,-0.002260843984913663,-0.016225363651756197
-0.01978110958589241,-0.0012866483984907973,-0.0111734379970585
-0.019125311155221425,0.003003462779815891,-0.00791259117249865
-0.0178750378836412,0.0054102379181131255,-0.008781700671534054
-0.01930080179590732,0.004026082024211064,-0.013590889466286171
-0.020926630895701237,-0.0012628000831682584,-0.020095230865990743
-0.020019873772980645,-0.007229532911878778,-0.02433016743452754
-0.01814555434975773,-0.008926767804950941,-0.026246741981594823
-0.017924267012858763,-0.007800630555721,-0.025986553737311624
-0.01899816925288178,-0.008533653272024821,-0.024913446395657957
-0.01904745295178145,-0.01314349447056884,-0.027432735805632547
-0.017252667021239176,-0.02050180955848191,-0.0333293282892555
-0.015095127309905365,-0.02658914127096068,-0.0389099950552918
-0.013148846846888773,-0.02835867962858174,-0.04038960105390288
-0.012342657100816723,-0.02540254899940919,-0.03756623118533753
-0.014430052033276297,-0.018601862393552437,-0.033989508665399626
-0.017919433958013542,-0.011342410289216787,-0.030435692679020576
-0.02071174640150275,-0.0054046986406319775,-0.024234019292634912
-0.021991305402480066,-0.002242312120870338,-0.01692526893748436
-0.02200380913564004,0.0011157460448885104,-0.010986928828060627
-0.022437143343267962,0.003939233010896714,-0.009335805771115702
-0.024397188099101186,0.007107152214302914,-0.013227024282969069
-0.027022275389754213,0.008781942597124726,-0.0213043258554535
-0.027619551474344917,0.00889769125933526,-0.026418498237035237
-0.026544201318756677,0.008411441740463488,-0.026144320145249367
-0.026292051188647747,0.006683427727693925,-0.024893193767638877
-0.026839297788683325,0.004967385393683799,-0.026257906938553788
-0.026668030841392465,0.0038276093619060703,-0.029659229767275974
-0.02717218012548983,0.0022215697299543535,-0.031114886951399967
-0.02878340455936268,0.0004216605873352819,-0.029931150493212044
-0.028423581170500256,-0.002622266492835479,-0.026926138161798008
-0.027690808565239422,-0.00436433538197889,-0.026340394470025785
-0.028108013793826103,-0.00422141101807938,-0.026048444851767272
-0.029130604161764495,-0.004901832653558813,-0.028839180231443606
-0.029713699404965155,-0.0076754458859795704,-0.0320335166179575
-0.029903094400651753,-0.009803257853491232,-0.032456129702040926
-0.03013623609149363,-0.007959029971971177,-0.029956800062791444
-0.029409726266749203,-0.003349331109347986,-0.02712352215894498
-0.02938731267931871,-0.00022558798207228392,-0.025079807528527454
-0.02861711436707992,0.0005023320568398049,-0.023460092052118853
-0.026192490622634068,5.901179633838183e-05,-0.022342514057527296
-0.024597780793556012,-0.0016558814195377636,-0.020361454517114908
-0.02543028131185565,-0.0016390048358516651,-0.017231019228347577
-0.0274649792117998,0.0017617817320569884,-0.013624487110064365
-0.028022443075315095,0.0007415619052153488,-0.015845687812543474
-0.02660279096744489,-0.005824706931889523,-0.024489636416547
-0.024122711693053134,-0.009249025424651336,-0.02912855961767491
-0.02213723746535834,-0.008750218512432184,-0.026273391995346174
-0.02123372360074427,-0.004279562745068688,-0.023013088139123283
-0.020866871636826545,0.0016132975133587024,-0.02308914190507494
-0.020648722056648694,0.004126810381421819,-0.02314382254553493
-0.021044657842139713,0.0038688349377480336,-0.02240846515633166
-0.022509297195938416,0.003226998387617641,-0.018290193111170083
-0.023749855245114304,0.003485886963972007,-0.004098240424355026
-0.023417140255332924,0.005036985385231674,0.01145706028182758
-0.023158982003224082,0.004501542662183056,0.014776065654587
-0.024448936528642662,0.0024818218662403524,0.006035817477823002
-0.02436448630760424,-0.0015328362223954173,-0.011570881724765059
-0.02316660902579315,-0.009883907296170946,-0.03370732156326994
-0.02373560164414812,-0.01635487024032045,-0.04766097117681056
-0.024626182494102977,-0.014543072211381514,-0.048971371143125
-0.024300121367559768,-0.009795900041353889,-0.04139370867051184
-0.023824808522476815,-0.009216925718646962,-0.03583971920306794
-0.02256273728562519,-0.013988834325573407,-0.035516161005944014
-0.02174656583520118,-0.02147123268514406,-0.0399604432459455
-0.02199890514020808,-0.028797529012081213,-0.04885124144493602
-0.02232437145721633,-0.03291680332040414,-0.0606623143539764
-0.021877789549762383,-0.03150582779198885,-0.06590563134523109
-0.020785246306331828,-0.027407419111113995,-0.0632063893135637
-0.02033966484304983,-0.02334944838366937,-0.057735913287615404
-0.021499736249097623,-0.018050253856927156,-0.05019103628001176
-0.022621390598942526,-0.010521253898332361,-0.039187252696137875
-0.02230133395642042,-0.0033773715131246718,-0.02591192242107354
-0.021652982468367554,0.00612958046986023,-0.012871269063907675
-0.021559228116529994,0.014531171473208815,-0.00657529199088458
-0.020500710888882168,0.018302058379049413,-0.0052913442232238594
-0.017742915588314645,0.019527402400854044,-0.004478308710531564
-0.015810013792361133,0.01942644848895725,-0.0007218355904115015
-0.016414523997809738,0.016703439541743137,0.002406192152193398
-0.017845739421318285,0.011256473044340964,0.0018854027530323947
-0.01829592656577006,0.003614050001488067,-0.001263202534573793
-0.01805996726034209,-0.0041603220779506955,-0.0062880676523491275
-0.018219649064121768,-0.008813343811198138,-0.01166214315162506
-0.0188661870197393,-0.010996370292559732,-0.016039921320043504
-0.02082518949464429,-0.012638739463000093,-0.020025054254801944
-0.021823116185260005,-0.013597787983599119,-0.025334640668006614
-0.0202884530153824,-0.013674267393071204,-0.03175743404426612
-0.020417575797182508,-0.012001140021311585,-0.036760517104994506
-0.02362034319958184,-0.00789649857324548,-0.036875087971566245
-0.026046896891784854,-0.004946760327584343,-0.0317156664095819
-0.02670476897037588,-0.0032784637369331904,-0.025187115170410834
-0.027321530069457367,-0.002704310190893011,-0.022177386199473403
-0.027694164600688964,-0.001998356765398057,-0.02302648135810159
-0.027696105462382548,-0.0008164290647982853,-0.02400463563390076
-0.029031418307567947,-0.00044704415813612286,-0.023554466679343022
-0.030084534955676645,-0.00025623828037169005,-0.020360597773105837
-0.03034629662579391,0.0002417773146135005,-0.01588828490639571
-0.030235338272177614,-0.00010979421460888261,-0.01525347488495754
-0.0298871636914555,0.0009570918564349995,-0.01946155862242449
-0.02802231210807804,0.0029945381356810685,-0.023379916456178762
-0.027760597731685266,0.0021501177798199933,-0.024855107767507434
-0.029989087124704383,0.0003810766600054194,-0.02616571873659268
-0.03143156209262088,9.258172184445357e-05,-0.024915301764849573
-0.032285519409924746,0.000892561274667969,-0.023889533622423187
-0.03245382686145604,0.0009411727432961925,-0.025018314772751182
-0.031500690965913236,0.00035427717648417456,-0.026579622499411926
-0.03134389771730639,-0.0012800359172615572,-0.027098902137367986
-0.032044332328950986,-0.003027167622349225,-0.027128737201564945
-0.0321048719342798,-0.003993645805167034,-0.02825065894285217
-0.030373292247531936,-0.0036790102058148477,-0.029614460800075904
-0.025880828616209328,-0.004090062702744035,-0.02831130041158758
-0.02223230512754526,-0.00389295382774435,-0.024619906980660744
-0.02114559720212128,-0.0028501262931968085,-0.02299374136782717
-0.019598435756051913,-0.004342630290921079,-0.026730247554951347
-0.018984484995598905,-0.006156027666293085,-0.034663757105590776
-0.019030125258723274,-0.00558337433176348,-0.040483999327989295
-0.018031312720268033,-0.004430114131537266,-0.041051094740396366
-0.016130752555909567,-0.0038280813896562904,-0.03822888538707048
-0.015489640645682812,-0.002146773340427899,-0.03523295890772715
-0.01587178667250555,-0.0004958770887242281,-0.03166034730384126
-0.016235602743108757,-0.0002634754707742104,-0.026337846065871418
-0.016791169400676154,-0.00011637387586915793,-0.020769859474967234
-0.016202902770601213,0.0013660693412020919,-0.013804573427478317
-0.017040272723534144,0.003480422037682729,-0.004553869075607508
-0.018475671822670847,0.0056491589930374175,0.0045909700929769315
-0.01863704528659582,0.004587787316268077,0.005228734607953811
-0.01970894300029613,0.00027271050839772215,-0.0014278834896686021
-0.021914875105721876,-0.0017006980215228396,-0.009139849680650514
-0.02246961412311066,-0.0017183527916131425,-0.01619506292627193
-0.021789468519273214,-0.0011808398312496138,-0.02052133459073957
-0.0226496940740617,-0.0010576197837508516,-0.020762370695592836
-0.023400139980367385,-0.0012541963769763242,-0.020312812921474688
-0.02258762833662331,-0.002483133357600309,-0.023309434254770167
-0.022997335690888576,-0.0037532006444962462,-0.029729448215221055
-0.025556490072631277,-0.00397933627027669,-0.03462994936853647
-0.02622543070174288,-0.004572354555421043,-0.036103156162425876
-0.023667336790822446,-0.006423456852644449,-0.035347762604942545
-0.021288760763127357,-0.007460305823769886,-0.033081880246754736
-0.020354071239125915,-0.006617590770474635,-0.03241930971853435
-0.018978089428856038,-0.005212260930420598,-0.031726842280477285
-0.01955021798494272,-0.004216211436869344,-0.02820357258315198
-0.02324863635294605,-0.0048079459702421445,-0.02616308665892575
-0.026266894565196708,-0.006926547939656302,-0.027320098524796776
-0.028864071282441728,-0.009196351129503455,-0.027274640160612762
-0.030101848096819595,-0.009526785106572788,-0.021277073756209575
-0.02969770139316097,-0.0063759280237718485,-0.010168791050091386
-0.029553624699474312,0.0011479500017230748,0.0004583280031056347
-0.029554219509009272,0.009559850695950445,0.004300306500226725
-0.027083257009508088,0.015493757018703036,-0.0011013800076398184
-0.024779206796665676,0.014969933545216918,-0.012658336345339194
-0.02160990879929159,0.009632592991692945,-0.023286167561309412
-0.01800489735614974,0.005577476258622482,-0.026502177206566557
-0.017296039004577324,0.004559836270345841,-0.0260427132161567
-0.019398386939428747,0.002968816488646553,-0.02636844692460727
-0.02227854020020459,0.0010859564554266399,-0.026800669729709625
-0.02467215381329879,-0.00329971931023465,-0.02746786231000442
-0.024415467123617418,-0.009109706297749653,-0.03567186286090873
-0.023444221369572915,-0.015370584151241928,-0.04748319406644441
-0.022995887775323354,-0.020874700567219406,-0.05247231456451118
-0.02331676660105586,-0.02551346733525861,-0.051826918934239075
-0.024131473765010014,-0.027623935238807462,-0.04948280184180476
-0.024190241674659774,-0.023165686798165552,-0.04640287079382688
-0.02235503779957071,-0.013886274246033281,-0.041031318687601015
-0.01969900586118456,-0.007555998763564276,-0.034719487302936614
-0.01842042365751695,-0.0064050668697746005,-0.029408263799268752
-0.02046248482656665,-0.0062216831793193705,-0.025909330361173488
-0.02366250555496663,-0.004540012014331296,-0.02433995541650802
-0.02517543725844007,-0.0035085379295196617,-0.024509710783604532
-0.02515454252716154,-0.0035348105029697763,-0.02720163502090145
-0.025156714400509372,-0.004858418833464384,-0.030729202990187332
-0.02558173036959488,-0.005997390871925745,-0.03157048558932729
-0.025965076929423958,-0.0038895095713087358,-0.027912936275242828
-0.02761554605967831,0.002755643436103128,-0.024340097297681496
-0.027675030651153065,0.009141687769442797,-0.02093106922984589
-0.0264272512140451,0.013815806596539915,-0.017613227100810036
-0.025349365387228318,0.01873918517958373,-0.01634108593862038
-0.024511486117262393,0.020554962247842923,-0.014791954527026974
-0.024475793907186016,0.018333037587581202,-0.011815082871180493
-0.024059194402070716,0.01540423181722872,-0.010346991075493861
-0.023358006728813052,0.013498533917299937,-0.007828425623301882
-0.02428248080832418,0.008850724043441005,-0.0033859305403893813
-0.02764994314929936,0.0025330054995720275,0.0004173762135906145
-0.03004306745424401,-0.002190364739362849,0.0009048346214513003
-0.029873617677367292,-0.007015308710833779,-0.001943793449754594
-0.02926153683802113,-0.01614767825230956,-0.009593889444658998
-0.029039036235189997,-0.029712720788666047,-0.02068539833999239
-0.028875818316009827,-0.04341332532931119,-0.03356401066412218
-0.02851768113032449,-0.05029295789427124,-0.04369218731881119
-0.02731266249611508,-0.04667043685913086,-0.04892662036581896
-0.025276049200329,-0.035379609471419826,-0.04855190491070971
-0.023500742827309296,-0.022871892724651843,-0.04418092066771351
-0.02302034954482224,-0.013886654414818622,-0.041433519072597846
-0.022995292965788394,-0.010118795216840226,-0.040647919377079234
-0.021992447727825493,-0.009063865945790894,-0.038455451431218535
-0.019136114133289084,-0.006760725227650255,-0.034209555451525375
-0.01675609928497579,-0.0022594529127673013,-0.026490397431189194
-0.015575251381960697,0.0029901211746619083,-0.019262552086729556
-0.015786827134434134,0.006073529675632017,-0.015429657651111484
-0.01674091436143499,0.005987114946037764,-0.01566490209370386
-0.016803829566924833,0.002587168864920386,-0.017858727005659603
-0.016617568689980544,-0.005878295723960036,-0.021031879441579804
-0.016913778381422162,-0.01556665483803954,-0.02538861008360982
-0.01622992567718029,-0.01991873432416469,-0.0299084022117313
-0.013422552910924423,-0.018493528841645457,-0.034130600397475064
-0.012857455658377148,-0.013294845302880276,-0.03615875539253466
-0.016197844161069952,-0.007486346021323698,-0.034209268051199615
-0.020004654288641177,-0.005266850621410413,-0.029536595320678316
-0.02135534850822296,-0.004892679953627521,-0.024971061066025868
-0.022541651560459286,-0.005554755716730142,-0.02364837382629048
-0.024522629246348515,-0.005306753791955998,-0.026854939278564416
-0.025560548237990588,-0.00196798669094278,-0.029630413337145
-0.026574254661682062,0.004682201506511774,-0.031285926525015384
-0.02831150959536899,0.01062986393662868,-0.0300895899272291
-0.03019179894181434,0.013404699529928621,-0.02790822873066645
-0.029787985113216564,0.013376723472902086,-0.025805878976825625
-0.029457938580890186,0.012816251910408027,-0.02369351204833947
-0.030299142963485792,0.01264162074221531,-0.02168989522033371
-0.030158267691149376,0.011805617759819143,-0.02102739927067887
-0.029047329007880762,0.008449569577351213,-0.01926361619553063
-0.02840327942976728,0.005401142061600694,-0.014790904970141128
-0.02836719613696914,0.005539586254599271,-0.01190887633129023
-0.027752939786296338,0.004089722096978221,-0.011603760867728852
-0.026034245820483193,-0.0026817899652087362,-0.016809672160889022
-0.023392674847855233,-0.010230304724245798,-0.02184967161156237
-0.019957600670750253,-0.012488463653426152,-0.020416866391315125
-0.017798689441406168,-0.012502378012868576,-0.018618624380906112
-0.016807181964395568,-0.013887759450881276,-0.020829218556173146
-0.017307675079791807,-0.015627934772055596,-0.02465473153279163
-0.017962844140129164,-0.014725401342730038,-0.02547902477090247
-0.017065392967197113,-0.011200037988601252,-0.02279184991493821
-0.01736111516947858,-0.0076694977906299755,-0.019655721189337783
-0.018169886971008964,-0.005791024705104064,-0.01734284160193056
-0.017702030163491145,-0.0061310670389502775,-0.018868930055759847
-0.0171383344422793,-0.010883005415962543,-0.024791144824121147
-0.017140191630460322,-0.0162616343004629,-0.02881081309169531
-0.017769873011275195,-0.015489949873881415,-0.027343983674654737
-0.01915127540996764,-0.010701740393415093,-0.024204755391110666
-0.01997289109567646,-0.005229117050475907,-0.024198076062020846
-0.019752324078581296,-0.0021811563328810735,-0.025442825062782504
-0.019574868929339573,0.00024401180098720943,-0.02448081795591861
-0.021100528101669624,0.002172597305616364,-0.023973656425368972
-0.02436700015095994,0.0011203126177861122,-0.024353015760425478
-0.027702297302312218,-0.0005229705948295305,-0.02306030728504993
-0.028703399948426522,-1.9975900045210437e-05,-0.02139556272595655
-0.027010837584384717,0.001511923528596526,-0.02304652844031807
-0.025946857931558043,0.0026980658276443137,-0.02368763853155542
-0.026934016204904765,0.003168538569298107,-0.022252903363551013
-0.027026053430745378,0.002516127779017552,-0.02033283089986071
-0.02793768908304628,0.0006743806011400011,-0.01815699943108484
-0.0312931151711382,-0.0019566646187740844,-0.016786223568487912
-0.03250947338528931,-0.005191596301301615,-0.018195125448983163
-0.03177359758410603,-0.00725810241419822,-0.02092130671371706
-0.03220005601178855,-0.00567898041481385,-0.023170201529865153
-0.033399221138097346,-0.0030104172310529975,-0.02573188794485759
-0.03432723678997718,-0.0001221762033765117,-0.027178117306903005
-0.03332017149659805,0.0024614485027996125,-0.028071786800865084
-0.03222631130483933,0.003917085905413842,-0.030187980883056298
-0.03255593765061349,0.0039468304748879746,-0.03280699820606969
-0.03259426011936739,0.002771981144178426,-0.03379393820068799
-0.031225179554894567,0.0019188439637218835,-0.03288334846729413
-0.02975981988129206,0.0029755360628769267,-0.031099312764126807
-0.032086176361190155,0.004069634542247513,-0.02832459176715929
-0.03299830495961942,0.0052752466217498295,-0.026556823286227882
-0.032514610211364925,0.006091631803428754,-0.02722686986089684
-0.03376206223038025,0.006829733138147276,-0.027924195819650777
-0.035577089875005186,0.005435217190097319,-0.026712701583164744
-0.03341784031363204,0.0033140740924864076,-0.023431652152794413
-0.028940972697455436,0.0018765066442938405,-0.021429688786156476
-0.026100367904291488,5.811524772525445e-05,-0.021409157852758653
-0.02533920451242011,-0.00020624239027711155,-0.01872416578407865
-0.026292282200301997,0.0031082238365343073,-0.010106610716320574
-0.026554289433988743,0.006061648946342757,-0.0033243532016058452
-0.02381795275141485,0.0028413942345650867,-0.004726534371002344
-0.0174369961314369,-0.006186172868183348,-0.011731312042684294
-0.011593810086196754,-0.013589679838332813,-0.019438281015027314
-0.008616259947302751,-0.018790082322084345,-0.0214342671824852
-0.006901292636030121,-0.020888364815618843,-0.015683954188716598
-0.004776065907208249,-0.019785400581895374,-0.01271344990527723
-0.004407404048833996,-0.01668173717916943,-0.01578336195962038
-0.0061351406657195184,-0.012231448636157438,-0.021647880203090608
-0.00614270311416476,-0.009537845471641049,-0.028374590328894556
-0.0051136321417288855,-0.009751479410624597,-0.034407425118843094
-0.007316795745282434,-0.01061072362062987,-0.035617995308712125
-0.010901900168391876,-0.010736680451373104,-0.03453505632933229
-0.01179759874503361,-0.010376522368460428,-0.03620954885263927
-0.010246758392895572,-0.00900635222933488,-0.03817077958956361
-0.009605583727534395,-0.008285086551040877,-0.034708617022261024
-0.011176405678270385,-0.007254519914567936,-0.027642256100079976
-0.013977043636259623,-0.004054270902997814,-0.02625536399136763
-0.015310306480387226,0.00023829768736050028,-0.02901175139413681
-0.015795747458469123,0.0024258822577394312,-0.031181196391116828
-0.017351205315208063,0.00408854657507618,-0.02910396688093897
-0.020749039322254248,0.006315178779914277,-0.023437372874468565
-0.02407792999292724,0.006874251539557008,-0.019250886907684617
-0.02541965113778133,0.0046666787056892645,-0.020703588234027848
-0.026144400180783123,0.002893805685744155,-0.02654383933986537
-0.02746865720837377,0.0029372160952334525,-0.030620005418313667
-0.028031203328282572,0.0038971456888248213,-0.02975962524942588
-0.02790041617117822,0.0031555816804029746,-0.029535482099163346
-0.02957176366180647,0.0007149681664486707,-0.03144201036775485
-0.03220459257136099,-0.0012168068224127637,-0.02907419366238173
-0.03273227048339322,-0.002514069819881115,-0.023361821149592288
-0.030809660529484972,-0.006607560862903483,-0.021263489543343894
-0.02735497400863096,-0.012088254152331501,-0.023431541194440797
-0.025308325348305516,-0.01369179881294258,-0.026382615033071488
-0.025326135073555633,-0.011760838788177352,-0.02813642095134128
-0.025927565729944035,-0.009831239367485978,-0.026087227524840273
-0.026872698072111234,-0.008265612450486515,-0.020715124264825135
-0.0288265582639724,-0.006326576112769544,-0.013815458260069136
-0.030442484785453416,-0.0013032388324063504,-0.008945062290877104
-0.03015846414200496,0.0020727225091832224,-0.008314811566378921
-0.028762367946910672,-0.0026872569378610933,-0.013453466635837685
-0.028363931050989777,-0.012168874491180759,-0.018776549040921964
-0.0304493496514624,-0.01721516491670627,-0.021440460841404274
-0.03104320785496384,-0.012631110621441621,-0.020352204955997877
-0.03036752423213329,-0.0024797084279271076,-0.016503463484696113
-0.030158516892697662,0.008836405868350994,-0.01276730381505331
-0.03095399370067753,0.016855148714967072,-0.012213467016408686
-0.030425062504946254,0.017142512660939246,-0.016564059478696436
-0.03003953315783292,0.013712295185541734,-0.023275759303942323
-0.03018666393472813,0.010904694136115722,-0.029286056815180928
-0.02957019387395121,0.009175909326586407,-0.03321242184028961
-0.027222235075896606,0.009045598744705785,-0.032760362955741584
-0.024746575945755467,0.011038374395866413,-0.02941979983006604
-0.024242603103630245,0.012392822100082412,-0.026603604055708274
-0.024463846784783527,0.00946447289607022,-0.028109101549489424
-0.025792218366404995,-0.0016975293419818627,-0.03453437966527417
-0.02679023782548029,-0.01779396552592516,-0.04567052747006528
-0.023850161596783437,-0.03437016857787967,-0.06121663318481296
