ch_0,ch_1,ch_2
-0.02480797775206156,0.01189010617963504,-0.02456295806041453
-0.024899902200559154,0.009244906323147006,-0.019867977243848145
-0.02217745168309193,0.006519228008983191,-0.016141648302436806
-0.019429349777055904,0.002288493533342262,-0.014048714547243435
-0.018112115867552347,-0.0037061615785205504,-0.011889754205185454
-0.01785220047167968,-0.013275670426082797,-0.010062468390970025
-0.0176766134245554,-0.026010960937128402,-0.011218542567803524
-0.017231637684744783,-0.03387275501154363,-0.016597465219092555
-0.01683716254774481,-0.03224172905902378,-0.024524146283511072
-0.017092199414037168,-0.022572769012185745,-0.03265420673415065
-0.018962835383717902,-0.012443607374734711,-0.03509098314680159
-0.019676874217111617,-0.0013345619436222478,-0.02891602889576461
-0.02021307773247827,0.010833379747055005,-0.022682768758386374
-0.02027565278694965,0.019480776245472953,-0.021144613128853962
-0.01867194805527106,0.02494576074241195,-0.02182820207963232
-0.01820705620048102,0.028527507311082445,-0.018543732949183322
-0.018482412997400388,0.02966799002024345,-0.010335169463360216
-0.018469345377525315,0.03186768662999384,0.0032669297524989815
-0.018829001419362612,0.03723308691405691,0.020682682588812895
-0.019636248907772824,0.04246141907060519,0.03684193143271841
-0.02195595698140096,0.043559939513215795,0.04964116669725627
-0.026205549147562124,0.03570960689103231,0.05091402636026032
-0.030002147468621843,0.014118408216745593,0.030892191716702655
-0.03038473369088024,-0.014219680451788008,-0.00436404297943227
-0.027788790248450823,-0.03624366581789218,-0.03699191802297719
-0.025534352971590124,-0.050420268962625414,-0.053492003644350916
-0.02396894524281379,-0.05303259604261257,-0.0544745780644007
-0.021893509256187826,-0.038430644053732976,-0.04602104309014976
-0.020534396753646433,-0.020006746126455255,-0.039447364542866126
-0.02037794911302626,-0.008661206265969668,-0.03999900945927948
-0.020557870811899193,-0.002857158506230917,-0.04267748954589479
-0.020181318177492358,0.00016537990177312167,-0.04169260137132369
-0.02012138065765612,0.002733470410021255,-0.03148187533952296
-0.022192987671587616,0.007510567684221314,-0.01657797474763356
-0.02481888441252522,0.012059414075338282,-0.009938298717315774
-0.025632032702560537,0.012358325875538867,-0.01322383923252346
-0.02583467539807316,0.007294638180610491,-0.01920245631481521
-0.02668621345947031,-0.0011552212981769117,-0.023327320377575234
-0.030534549296135083,-0.007039038791845087,-0.030764145776629448
-0.03511303657433018,-0.00928287499846192,-0.041070357838179916
-0.03729562376975082,-0.01101974157791119,-0.045874483475927263
-0.03783027932513505,-0.012535110727185383,-0.04097349301446229
-0.039510210626758635,-0.011620291843428276,-0.03370567719684914
-0.040642513340571895,-0.00993969206319889,-0.02806737393257208
-0.039147951611084864,-0.010436393495183438,-0.024991764803417027
-0.037045600038254634,-0.01272982444788795,-0.02626543391670566
-0.036530400393530726,-0.017445012417738326,-0.03047514837817289
-0.034738324757199734,-0.021535201085498556,-0.03640401700977236
-0.02970534478663467,-0.019193421394447796,-0.03452934106462635
-0.024240227503469214,-0.011170513062097598,-0.014409931281988975
-0.02107956970576197,-0.000888450927050144,0.0055254668041015975
-0.01673547194513958,0.008100163540802896,0.005527749635803048
-0.009837862307904288,0.014365930837811902,-0.00476432933282922
-0.0027302994567435235,0.018577402443042956,-0.01302492728427751
0.0036924154755979544,0.02139645403076429,-0.016440331819467247
0.008268246347142849,0.021436035240185447,-0.014953639947634656
0.00885623103386024,0.021111958631081507,-0.007964694304973818
0.00424869722337462,0.021643902073265053,0.0037637821606040234
-0.002758994241958135,0.021611604097415693,0.017397682313458063
-0.007968235877342522,0.0204796942853136,0.026528901798883453
-0.01233599141414743,0.018556256691226736,0.023719388991594315
-0.01776757198967971,0.015102382349141408,0.010191937690251507
-0.024663722797413357,0.008702540071681142,-0.006517659585369984
-0.030961818993091583,-0.0014185915233611013,-0.021309520889190026
-0.03439822467043996,-0.016250362023129128,-0.03587964238249697
-0.034964748920174316,-0.03885434489347972,-0.05492324271472171
-0.03285498314653523,-0.06092541298130527,-0.06861358269816265
-0.02890492760343477,-0.06770019535906613,-0.0671267116558738
-0.02512072205718141,-0.06127174128778279,-0.05751899880124256
-0.022385655029211193,-0.05348824561224319,-0.05813896132167429
-0.02086348831653595,-0.04859660111833364,-0.07096522313077003
-0.020491153918555938,-0.04052100484841503,-0.08632729441160336
-0.020835608665947802,-0.025641613319749013,-0.09440698340767995
-0.02098934601235669,-0.010929065865639132,-0.08737163443583995
-0.019858580344589427,-0.0029171644655434648,-0.0701107201166451
-0.016887775927898474,-0.0006851926741546777,-0.05195911580813117
-0.015673684174544178,0.0015711054857092677,-0.03841795478365384
-0.016908905308810063,0.006366508387145586,-0.02967769614770077
-0.01901457471831236,0.011819635801657569,-0.023784681616234593
-0.020950514226569794,0.013921088793722447,-0.01775481905497145
-0.02390279041719623,0.011768682270485442,-0.015439032722497359
-0.027178370146430098,0.00786705732025439,-0.012368239367788192
-0.028801970984204672,0.003638637053882121,-0.008721063750272151
-0.027563224648474716,0.0009107039318223542,-0.005707756372430595
-0.025857074433588423,0.00194467634173634,-0.003136570512651815
-0.02610063529573381,0.005389260422816733,-0.0006348348051687935
-0.028781212677131407,0.010560036571405362,0.004307281869841972
-0.032177693356061354,0.01676770807534922,0.009831490388023667
-0.03279603333794512,0.020411491277627647,0.009441792826692108
-0.031031278922455385,0.02041938205366023,0.003463562734395964
-0.029308215744094923,0.01674014129093848,-0.0036704441299661994
-0.029382807042566128,0.015108154002518859,-0.005058353053755127
-0.029110624382155947,0.0170673356478801,0.0019771503048104933
-0.027696656616171822,0.017990729247685522,0.006880056389491074
-0.02556378058216069,0.01219622754433658,-0.0015363601733042742
-0.025580462533980608,0.00240332792600384,-0.01383054768666625
-0.027192143534193747,-0.005875533588550752,-0.02273638529004529
-0.028967933758394793,-0.013538657185563352,-0.032891995942918584
-0.030048364351387136,-0.0231559642998036,-0.045051951019559056
-0.029298791559995152,-0.030637020245194435,-0.053280266001820564
-0.027076555852545425,-0.030225592126953416,-0.05503738429979421
-0.026358422474004328,-0.022095959138823673,-0.05242802944849245
-0.025801437004702166,-0.012272619642317295,-0.05068816972197965
-0.023010674340184778,-0.007292911504919175,-0.0487612014694605
-0.019426342987571843,-0.007848513632779941,-0.042363604734418914
-0.017632208255236037,-0.008077602615230717,-0.03558984099072404
-0.017764748918125406,-0.0037827314827154623,-0.029721300961682573
-0.019218310626456514,-0.00011769723329280168,-0.02155607216991484
-0.020562631107168272,0.0011382931006664876,-0.012176512427686248
-0.02187919926655013,0.0034091669931513024,-0.0037850468288525008
-0.023805156160960905,0.008245820026786532,0.004187577815173427
-0.025981215003412217,0.012698418686341029,0.01063122817868134
-0.02850345117622055,0.015191627426247578,0.009044874786923174
-0.031400646548718214,0.016371624951716512,-0.0017272604964091443
-0.03391964128240943,0.015671814253437333,-0.010433994248160161
-0.03419498534640297,0.014236105016607326,-0.012274160326342098
-0.031216262868838385,0.01449612136639189,-0.009668762686487753
-0.027465575840324163,0.019562661691452377,-0.0030528769912052667
-0.023836562832002528,0.02767536170722451,0.008884878297976684
-0.022303413061308675,0.03365831435075961,0.01579167292220518
-0.022158559659146704,0.031401908927364275,0.008111885108519346
-0.023460015654563904,0.02074969233945012,-0.004194725988782011
-0.02504810254322365,0.006011288860463537,-0.012871557373728137
-0.02690914880076889,-0.013558756108977832,-0.02707424027903471
-0.027490272259456106,-0.04239689587848261,-0.04851900303037837
-0.025291816200478934,-0.06895848491694778,-0.06324559217318892
-0.02148535531887319,-0.07745827315375209,-0.06552888225996867
-0.01952762067958247,-0.06890414806548506,-0.06201994983712211
-0.019673891074489802,-0.056480457715224475,-0.05834295734530315
-0.01967123353097122,-0.04781436291523278,-0.056498432968510315
-0.019042348867515102,-0.03964994175476022,-0.05264420178718865
-0.017839696738519706,-0.026524152417550795,-0.04415891817188822
-0.016190726455533877,-0.01584249548614025,-0.03462009408394806
-0.013529527677746955,-0.01296479422308039,-0.031141393264988437
-0.011302631719445344,-0.012698554201051593,-0.0279174364550272
-0.009771853001439013,-0.008907451956474688,-0.021110121451783925
-0.0091169631559751,-0.003473486003713333,-0.013597064025816508
-0.009568410860083532,0.0007456781645487354,-0.007403350082313409
-0.009083491931960452,0.0030804551442997763,-0.001770605763340427
-0.007168461252149427,0.006082922482164577,0.0017560901142132934
-0.005724537913920358,0.01231763235409744,0.001688276142886025
-0.006717097676300909,0.016819907614262775,-0.0033089852422563126
-0.010208889761997852,0.0155491925397655,-0.01222083574248245
-0.016354446415789425,0.012079312909918372,-0.01842048004618846
-0.022870661268825643,0.010035476407210808,-0.020518100427580066
-0.02768815102172084,0.008892620826372877,-0.027012538339477032
-0.031039107852848247,0.007692123290325981,-0.03538675809977576
-0.033064781746361405,0.00755779137762147,-0.036702287616208196
-0.0330678049067501,0.010161403224628884,-0.03005437429237645
-0.033312448067590594,0.012792033885489218,-0.018328186342841946
-0.033657983294688165,0.013730553291679826,-0.00965112940320978
-0.03226896660635248,0.011976210771535989,-0.012654268175538164
-0.030359067750396207,0.008843767318467144,-0.020411243895068765
-0.02812381717376411,0.005233061983744847,-0.02466684782120865
-0.02546209179854486,0.0029697746413148707,-0.022885304133524187
-0.022195643396116793,0.005982192305964418,-0.016083689843071625
-0.017770638805814087,0.01431204054824775,-0.01149343643191969
-0.014271839063439984,0.022494157747132704,-0.014486053260043263
-0.013928224689152557,0.02302198117831722,-0.023312122721108608
-0.01681982757872902,0.0209752943192143,-0.031126059184316546
-0.01792666080291383,0.02094986120937392,-0.03291041139164008
-0.017559408661327325,0.019990608052466996,-0.03179697159794159
-0.018072261809720658,0.015444307791767642,-0.03274023765698075
-0.021637397367157973,0.007899017873569392,-0.034974695154232904
-0.025295668820035644,-0.0003306271025849128,-0.032684158213669434
-0.026682162570068613,-0.007918838491605129,-0.023966615117387846
-0.026879602955887094,-0.01844615508161951,-0.020366471289889887
-0.027965315894107334,-0.03580360134947114,-0.03292691690148786
-0.03101187030551955,-0.05739459447795525,-0.05549909110413864
-0.034138090995838866,-0.07560410449514166,-0.07543481478933245
-0.033043441362679005,-0.08732316200621426,-0.08336157043231651
-0.027300167857902125,-0.09067042992683128,-0.07651506166439503
-0.02066358683805447,-0.07624961290275678,-0.05510448681889102
-0.018794817151501775,-0.037456680729519576,-0.018000180716626346
-0.021478002963704057,0.0056496037359465845,0.014361313333211001
-0.024252618459286168,0.03270171509939246,0.026444855393492617
-0.023221915398607962,0.04414503200678155,0.02461379517626483
-0.020195047909510322,0.04701016951003112,0.02234348539786879
-0.01741462438076269,0.04390855974634178,0.022936146706342697
-0.016445123037556186,0.03610048952396028,0.01830536530178506
-0.01702292138361372,0.028038633899996057,0.006881695298943669
-0.01817093652789481,0.021206469682510942,-0.006200187726790318
-0.021242400180199184,0.010350332559028175,-0.01790954775060527
-0.02555736318754498,-0.007250627277244348,-0.027754840630223043
-0.029933073165011592,-0.02217980545538012,-0.03026096419489477
-0.031183779356069863,-0.024336794012924656,-0.021695665054721758
-0.02555378887336701,-0.01983218862733338,-0.016935278836172074
-0.016476829841849394,-0.026832227376871742,-0.03842882870230824
-0.011103588803962339,-0.04508765778155066,-0.07511663716286421
-0.010699774975364562,-0.06075478086131625,-0.09963205957319587
-0.01225811956828693,-0.05224900087341666,-0.09353162022307515
-0.015560173778794706,-0.01904923738038633,-0.06318395026028156
-0.0193555788428057,0.015092170542629901,-0.03243594983359799
-0.020395540559547953,0.032004103559302166,-0.018423885194351897
-0.02058998325082939,0.03361220660735853,-0.018923556126537733
-0.020991439669160172,0.031546598620479926,-0.021263680537231266
-0.024147055228240788,0.03183708031428978,-0.014751189155504107
-0.029852093575755134,0.03319578536320478,-0.0009280074664275162
-0.0335177501256112,0.029074630219838582,0.00600351859247894
-0.0333986317855306,0.013634900824399665,-0.003496482349873986
-0.032303320040227845,-0.003902257503796136,-0.017359385310555808
-0.030677889299113303,-0.014369057680596597,-0.03381679198355414
-0.02783857416943647,-0.0228771550609963,-0.05184907786315307
-0.024698672859813087,-0.032931886380538344,-0.06311874312814325
-0.023726715880911797,-0.041662999137770385,-0.06559284520335495
-0.02555747050791979,-0.04742270175484009,-0.06362187559716403
-0.026174897357122973,-0.04707165135187097,-0.05595558832283132
-0.023494605557061732,-0.033588734368095174,-0.03836711039184593
-0.022215368517208844,-0.013404820492723957,-0.019110122593701817
-0.025787248887354508,0.001996229229916935,-0.009253297321265563
-0.030305613108794205,0.011486065886856522,-0.0062199210333346855
-0.032832613214850426,0.019464863726170734,-0.0014152101357467473
-0.031143576052272692,0.026125548174604774,0.004003976755484473
-0.028410566301317886,0.02857081199181266,0.004746022113977233
-0.030006853194208816,0.024622595446999185,0.006238843980099773
-0.032633633963996544,0.017363247025059536,0.009352149390906561
-0.03365642623975873,0.009382462849316653,0.007217770416900748
-0.032338597520720214,-0.0012695755913227913,-0.00639098516330705
-0.02947278699139133,-0.012014758794975933,-0.02373827010160312
-0.028036982257617638,-0.01678607804933563,-0.03252358874306083
-0.027702793886419386,-0.014901620488672052,-0.029970380637678318
-0.026213994715362787,-0.012213989975862205,-0.024974096959340386
-0.02323297485418152,-0.012279238944756798,-0.025552355509717017
-0.0190634837053949,-0.012858522495662328,-0.03103382550762035
-0.014568347978638485,-0.012345789400569629,-0.03539794488460757
-0.010823318916663993,-0.01133138266595779,-0.03808410474448465
-0.011076847840740811,-0.010232382919639349,-0.03426844341447577
-0.014453444237005897,-0.008251654435298406,-0.02459926690789871
-0.017054260752047412,-0.003083811407122994,-0.0197576609934913
-0.01732264536258299,0.005491692263603909,-0.02308612602064386
-0.01668499317020178,0.01521956619399134,-0.02432317523926031
-0.019224282368668355,0.02190979830629658,-0.0169296999956714
-0.023627604605280794,0.027056225007981993,-0.007020190878392896
-0.026714487830759026,0.032464500691276044,0.0009573465149514959
-0.028692529667750932,0.03594160807551816,0.007359078153967857
-0.03048250437132083,0.03496934732538648,0.01336743025603937
-0.030812232580501586,0.03159985499223694,0.014528090105159208
-0.029345967050176114,0.027982787287328392,0.00800297948444495
-0.02636737008288037,0.0229026500164764,-0.0009043509976436326
-0.02246168878627941,0.01586828329891432,-0.005876242084923433
-0.01920318027259782,0.0052745335779036395,-0.005247952231002273
-0.01585374411661178,-0.013626704458147287,-0.011802141671068966
-0.01190733200928662,-0.035444896639091894,-0.02515076812414918
-0.009648773811932188,-0.04624723078450188,-0.033518594136694446
-0.010242043572361581,-0.04470849671633914,-0.033868411264847964
-0.01090423120331252,-0.039226230001077056,-0.03312506669317372
-0.011077107046730816,-0.03368036414030939,-0.034877812140621245
-0.011797148545156233,-0.026080349925905466,-0.03570247645257041
-0.013101366675982717,-0.017471409591962583,-0.034061224141623825
-0.013826127542415634,-0.00978285061137285,-0.03263046528445557
-0.015497116692131385,-0.0018561121351012844,-0.033059041015803814
-0.018507958884583786,0.006242858489713399,-0.03393402948859148
-0.020833835151279345,0.006939873401279328,-0.03130182813038118
-0.02298462095495779,0.000843470161271398,-0.030191406040103175
-0.024751929231570102,-0.007659239599888679,-0.034091332054231316
-0.025376470148330554,-0.014072754311200697,-0.03861229197354987
-0.02341977415198926,-0.016843596313265152,-0.039242393540916964
-0.022927244572201744,-0.016194368072319776,-0.036010791518492624
-0.025372239178977907,-0.01249810156878084,-0.03222000668756664
-0.029912303944001906,-0.009267231689591426,-0.031887244404060766
-0.034213357139378786,-0.008558705303585157,-0.036018846003571525
-0.035278062568977475,-0.010691735951695591,-0.038421712815761566
-0.03375157393747941,-0.011238284059800208,-0.03510993701638654
-0.031074061553226784,-0.007080642262735637,-0.027559850423131138
-0.029841632567695342,-0.002963617362183868,-0.02075277006952092
-0.029404705855995417,-0.0005772914732915524,-0.01486161181674106
-0.029701886887778528,0.0030614967272413196,-0.008638019608042669
-0.030106715712463483,0.007098513833625475,-0.0044836315282736905
-0.03226218541385606,0.008796752808848396,-0.0037812110349477734
-0.035454977478366345,0.00763233401812613,-0.007139988156268373
-0.03608354745665565,0.00612511257713777,-0.015590692783007398
-0.03401752110221423,0.004412847829371458,-0.022414666091208346
-0.031287050660466775,0.003671869080790202,-0.025502995413262397
-0.030051349312998354,0.0034470549508114345,-0.028364807803882286
-0.02748798215179704,0.0019180247363692615,-0.031061459594639018
-0.02230369318567682,0.0008898341548047028,-0.03297445073258132
-0.018784086933010258,0.00014524734126553085,-0.035163404390914366
-0.01851062370405998,-0.0016114347545226337,-0.03626122634159401
-0.019493885702104308,-0.0028593717615876812,-0.03814423689618707
-0.019942612198065035,-0.00504547870150418,-0.03905023550032638
-0.01897753099910915,-0.006870503057143651,-0.03644294338300824
-0.017222922906512395,-0.004534260369837284,-0.026652614906197414
-0.01662911927269306,-0.002492627345418441,-0.019547493138816208
-0.018097187421517447,-0.005669247457262827,-0.020186600522720255
-0.020454961486393586,-0.010913815458479803,-0.025440605895710178
-0.022598878786084242,-0.011612504749791697,-0.0263960610027425
-0.023376218450721353,-0.008925801921577659,-0.02016109283431433
-0.022295629605650902,-0.0076468395491247065,-0.010600784662528895
-0.02086615677399095,-0.006352078798954608,-0.0021159692096262006
-0.021305682821548544,-0.0022066724341129884,0.004965202151652193
-0.023439157303073443,0.00223823235501186,0.007426930551446276
-0.024542538085370325,0.004268420070729917,0.0029174311748647597
-0.025868961529340595,0.004991466539649991,-0.007078815997374477
-0.029877801352995448,0.0045404390220937785,-0.01919272108352743
-0.03258833021391183,0.0015146285932132741,-0.01842739584390074
-0.03322458724142052,0.002100942992910859,-0.0021852988538739737
-0.03458095670794137,0.014688268493046053,0.010785680387925822
-0.03379287227289751,0.0360512021870818,0.011008982255589217
-0.030172570404829457,0.0569324656680692,0.0012034843166475184
-0.026265657652402297,0.07283051672857255,-0.009558022611599881
-0.02387513632129412,0.08531311323167756,-0.020826135369134136
-0.021503619791474193,0.09395167580805719,-0.034495587897254154
-0.01905137105495669,0.09473882528254762,-0.05089098704047501
-0.017583073713467456,0.08740765042603016,-0.06562300404766575
-0.01573328881931957,0.07657584501430392,-0.07010515400907025
-0.0124168236652622,0.06376756209647283,-0.06107199442340061
-0.010059781743620988,0.04490221544983797,-0.04777990761795081
-0.009729118573886808,0.014999712220742367,-0.04012988938484341
-0.010094253411807586,-0.018783701307256706,-0.04075836477568373
-0.007757104867778253,-0.04842711132369004,-0.04508811252890155
-0.004781627922056941,-0.07475935126421973,-0.046619654312962666
-0.0038570678952964954,-0.09952199616236612,-0.044914952013641596
-0.005040294126956724,-0.11791026190621778,-0.03988818571087904
-0.009048788342624903,-0.12591085396707058,-0.042001091060228646
-0.012799750948033761,-0.13093995221424848,-0.0538295425940305
-0.013828112059854902,-0.1431079290341586,-0.05755123129347339
-0.015216533029160928,-0.15590336988680065,-0.0418427589465864
-0.021145086066098884,-0.14704512432217598,-0.016647349184495397
-0.029275790438987315,-0.10952661250485107,0.0036830831504630623
-0.03339590330142528,-0.05962785508017987,0.01254331164091127
-0.03309849853394553,-0.01935186628543306,0.014392034245247487
-0.03198184640496038,0.0017220310155607876,0.008540340786566958
-0.02964707528008148,0.007938082489999942,-0.0021802334231324494
-0.024991421014419757,0.004205876848573098,-0.01007766604743665
-0.017121335986303166,-0.0029146210636099568,-0.01606978003110271
-0.010910075616266113,-0.006445657163567375,-0.021308029317879118
-0.009919725016516168,-0.005655121640302241,-0.025578974600648507
-0.012672644515987486,-0.004879094376519788,-0.032487139833392575
-0.01637496279727202,-0.005784880613646237,-0.040605860704090446
-0.018943639588542283,-0.008663248081575148,-0.050396600272506475
-0.019411128960200585,-0.012247197446413338,-0.05916677037021145
-0.02007420698646456,-0.015354409697465599,-0.06152582500362769
-0.022598884243052453,-0.01878566217783373,-0.05960704947938211
-0.02546880023146514,-0.022880141841596924,-0.05552940638153814
-0.028367840059217997,-0.024663573640282266,-0.04384805288282223
-0.028730501071549952,-0.022325226382235996,-0.027053250960307196
-0.02678586133697536,-0.02001328903133981,-0.018933413230115548
-0.025266053853556514,-0.019724699086509645,-0.021934845790383406
-0.025213272238033824,-0.015095034541445784,-0.02770620267256163
-0.026417168555781245,-0.0054285219448502176,-0.03054449553019367
-0.028368285711621866,0.00470934674012824,-0.02906672489189077
-0.029460616133292206,0.013023642168263905,-0.02502219649613835
-0.028723947252728976,0.018175232980865985,-0.021016025129938498
-0.027244293960393406,0.019349763533682562,-0.019411123503232375
-0.02661304097273387,0.020054649212397635,-0.020792422219528817
-0.026923360564978793,0.020030309315188788,-0.022542795704794116
-0.027327596399118192,0.019980208890046924,-0.021642570573021658
-0.02831966230587568,0.0212556951737497,-0.016808540749480017
-0.03056755303987302,0.023767353923176415,-0.01003164561552694
-0.03116124207735993,0.026452036763657816,-0.003757734930331935
-0.03239879515604116,0.027491729269968346,0.0006933166218914266
-0.03377169923624024,0.029060760425636545,0.0055221426009666175
-0.03284959529992193,0.03384444062248804,0.008057051672949456
-0.03131242192466743,0.03878290590364486,0.005140429038874572
-0.030397684895433486,0.041760118620004505,-0.0004054491853366926
-0.029113256459822878,0.04428021202329546,0.000117283313727512
-0.02710582884901669,0.04707428888650611,0.012835672350774985
-0.026347930543124676,0.05117524051456712,0.033802498364821076
-0.028176904379506595,0.06139100878499448,0.05235858407104388
-0.02969997876789421,0.07791813550284132,0.05419957233243622
-0.027557856810744852,0.09312624752055854,0.03729796299012378
-0.021999148884788156,0.1006961174425669,0.015316625649575144
-0.016739651982788928,0.09812881035031751,-0.0025984652438637568
-0.013659914657182526,0.08574182720622048,-0.018572005501482636
-0.0113095347842318,0.06301004759734496,-0.03240981823182665
-0.0074742542892636266,0.03448443385423161,-0.04166696817264892
-0.003755809075300931,0.009730443707667291,-0.04362973413662985
-0.0009554719326843042,-0.011378274393791799,-0.04567626820062287
-0.0013925880466558738,-0.03340917101013474,-0.054834035836393014
-0.007212208402052056,-0.05184481051401235,-0.06613886216655374
-0.016039073670981452,-0.059853973652934656,-0.0692220710334368
-0.02206907629442867,-0.06370458140736446,-0.06323555862763897
-0.021666643078788184,-0.07660783739993349,-0.06126069638412446
-0.01714995778456796,-0.10350209049647674,-0.07107605051714927
-0.015481766240554862,-0.12868548219557852,-0.08235407585743815
-0.01912993502628524,-0.1340822345810011,-0.08390979201067239
-0.02421644785499666,-0.11678047303576022,-0.073073802923318
-0.02925085755123291,-0.0889305374585092,-0.057725079386727884
-0.03194091550540179,-0.06662663508905098,-0.04734761387226172
-0.03250467125326395,-0.05340254938346334,-0.042354069591965526
-0.031852647225605324,-0.041221166611649096,-0.03958019078709185
-0.031131079595070332,-0.0280303975159768,-0.038282287277979776
-0.0325215733028017,-0.016428859453299083,-0.03563822610885836
-0.034200947993667796,-0.007139256922528148,-0.03136976738460362
-0.03516654760460369,-0.0013639050848723855,-0.03023556200787425
-0.03541615660651587,0.0025600195385777624,-0.030896135285729542
-0.03484662011032924,0.010629636562953237,-0.025362362066516653
-0.03365940574440174,0.02183736432925798,-0.014406904483621474
-0.02938863508461509,0.03104091956629418,-0.0022167246243043337
-0.022176915081217885,0.035768545785686,0.004068434463988524
-0.01560988494020421,0.035698252759175375,0.006527008281409508
-0.013777448657492641,0.03206558176316321,0.006565147941728355
-0.01488293128204532,0.02588644747447688,0.007319647465919843
-0.016064863302744925,0.021576586732408032,0.01104151215258753
-0.016731386494939215,0.02135643080691807,0.017274483980145305
-0.018583936252980493,0.024298884454765357,0.026186806280747987
-0.02099992343573831,0.023578471882501617,0.031097992177819833
-0.020813966330024414,0.017965472579817288,0.0209274330700282
-0.01758703547238838,0.013719525668420829,0.0015815389815543313
-0.013067114196019247,0.009919283911585808,-0.014935419130779337
-0.009872947885014582,0.0020985480659874156,-0.029101118343533017
-0.009561529623169918,-0.011083438039349858,-0.04069518399774097
-0.011733965038729366,-0.020879630028503016,-0.04139279917581007
-0.016562988093937747,-0.017614851458347403,-0.02872070763260126
-0.02375966687395703,-0.007597408057335997,-0.017366333850077353
-0.027493659217725508,0.000384414107656994,-0.015192817954812199
-0.028588347049662843,0.0023057846192386933,-0.016964853784884326
-0.029650991564267315,0.0017682763200355112,-0.01591920772625599
-0.030305791369755752,0.0027348501134838443,-0.014207470485416707
-0.029117742087692022,0.003850176653941162,-0.014660681699751876
-0.026680361770559102,0.002923595957327052,-0.016551561202504672
-0.02568027593952138,0.0009264437039746554,-0.021275875042192638
-0.027111736926599406,-0.002646167331477045,-0.02951757051050663
-0.02852760735549964,-0.008383502063225023,-0.03750847099581733
-0.029166376407374628,-0.015112593246158212,-0.04280745633877814
-0.02970919740619138,-0.017973125068238005,-0.04262852598913014
-0.030303770472528413,-0.017971431589103304,-0.03908512371708639
-0.02913213575084228,-0.0186047163879266,-0.03636490146163851
-0.028028136512148194,-0.021109259250806645,-0.03680315785459243
-0.02974846756842453,-0.02386309643043205,-0.040101724152918905
-0.030865383450873196,-0.021075975382700562,-0.04245186210027896
-0.029287100915098563,-0.014144915439828765,-0.0422877783421427
-0.02613472315715626,-0.010822230251505971,-0.04129902663407847
-0.02259340908494778,-0.013269664123072289,-0.041703817259985954
-0.019140603399137035,-0.015206994248728734,-0.043035975977545604
-0.01589726707607042,-0.013347503227123525,-0.04246996468282305
-0.013876266166334972,-0.006988334916968597,-0.038326106732711196
-0.014784927770961076,0.0006842197990408749,-0.03235666736145504
-0.01655209962336812,0.00523405378771713,-0.029151498893043026
-0.017585454770596698,0.005903387318539899,-0.025866782380035147
-0.016585297998972237,0.007053605713736033,-0.021317559003364295
-0.016339025023626164,0.008847380740917288,-0.015038234778330661
-0.01740052721288521,0.011173106031492352,-0.011973195796599612
-0.02063202191493474,0.012135325960116461,-0.014028749319550116
-0.023686305212322623,0.013137425412423909,-0.01784076084732078
-0.026055715352413245,0.013846083675161935,-0.01784275082172826
-0.027401867555454373,0.01265414812223753,-0.014968043615226634
-0.026636296752258204,0.010059650776383933,-0.013757770830125082
-0.02496246452210471,0.006596527327928925,-0.012828411854570732
-0.02410895103821531,0.003189989229213097,-0.01085264466382796
-0.02429304731776938,0.002377238843109808,-0.010552472303970717
-0.02495244552846998,0.0031214185582939535,-0.013821951142745093
-0.02635394048411399,0.0011884656032634666,-0.019965133105870336
-0.02709368163777981,-0.0002005757551160059,-0.02483683783793822
-0.028180202207295224,-0.0005439793540062965,-0.02692676571314223
-0.029145681764930487,-0.0005501584041667229,-0.02546066025388427
-0.02959349876618944,0.00144959722092608,-0.021243615265120752
-0.02945890992123168,0.005477818376675714,-0.017513772036181763
-0.02874419260479044,0.011462840120657347,-0.014501854820991866
-0.028536762329167686,0.018998807718162425,-0.013000479157199152
-0.029695938792428933,0.025640518288128078,-0.014910596291883849
-0.03171615753672086,0.027021182177122682,-0.018953478502226062
-0.03289474989287555,0.02322488035133574,-0.02130826578650158
-0.031701038096798584,0.018706212358665653,-0.019059396436205134
-0.028712092898786068,0.016179516023839824,-0.010882451533689164
-0.024172846678993665,0.010463602848176379,-0.004566900315694511
-0.01990817690966651,-0.00257086799138051,-0.008471976798318792
-0.017884851331473328,-0.014593713785870932,-0.015687353879911825
-0.016857935406733304,-0.021484223907464184,-0.019600895029725507
-0.014855153494863771,-0.022166281269164756,-0.02138429590559099
-0.015213224287435878,-0.022139747670735233,-0.016866631995071657
-0.016653591956128366,-0.02297104219906032,-0.005151062850927701
-0.016147463611559942,-0.02087725624733139,-0.00101410580555239
-0.014160607861413155,-0.01860774682427291,-0.011097979950136505
-0.013574192962551024,-0.017441070667700842,-0.026053441615658812
-0.015530305972788483,-0.014375892533280421,-0.03435070539126173
-0.01628335849090945,-0.010382669643149711,-0.03315449794172309
-0.014570652638212778,-0.009148883691523224,-0.030818060622550547
-0.013644228602061048,-0.010756360097730067,-0.03488751099212095
-0.014600264876207802,-0.011929610082006548,-0.04077590710949153
-0.014345449017127976,-0.011415935659897514,-0.04365908898762427
-0.015836414604564197,-0.011863570762216114,-0.041307179344585165
-0.01991117278521415,-0.01400744713464519,-0.0393306982005015
-0.023645929104532115,-0.01726135815260932,-0.04587252624332905
-0.026634405003278516,-0.020640010916395113,-0.058434601669432595
-0.027397507437854074,-0.02190773193433415,-0.06893234240124002
-0.026677756977733225,-0.02110843161062803,-0.07475999154848978
-0.025459989046794362,-0.01665733907429967,-0.07492359873140231
-0.023615499230800197,-0.007506962901970837,-0.06677463534288108
-0.02150731233996339,0.004467553026188398,-0.05410396624938585
-0.022750011339667253,0.01466278172301827,-0.04403588536661118
-0.024805087377899326,0.019397371943341568,-0.0341354934789706
-0.02436410250084009,0.019338807760505006,-0.018558523152023554
-0.02262840098410379,0.017898499208968133,-0.0056151220633182675
-0.02176192356273532,0.016559659343329258,0.002312630840606289
-0.023277629225049168,0.015188074939942453,0.010652123819454573
-0.027309226425131783,0.009602030331734568,0.019790542864939198
-0.032609867048449814,-0.0010539741879256326,0.0234498565987451
-0.03697369174915366,-0.010371228199801408,0.022581689336220734
-0.03885539263137616,-0.011240560525038745,0.02263791066070553
-0.038103447877801955,-0.008879876077116933,0.024625232981634326
-0.03595798261812888,-0.011821920452348422,0.02747715188888833
-0.03319479219499044,-0.022623551558353938,0.02829517688951455
-0.030703842639923096,-0.03730680691660382,0.01741080268402584
-0.028784807000192814,-0.046715937060071155,-0.007839189493097365
-0.02652150760695804,-0.03779874896281399,-0.03113679849775508
-0.02233358463854529,-0.015637127944501117,-0.042459083488211036
-0.018884456949308515,-0.003547292408256908,-0.04632971831597388
-0.017470014427090064,-0.003725358510564547,-0.0462054849776905
-0.01483626510889735,-0.00431043554272037,-0.04477466063690372
-0.010997172466886695,0.00031284807278098015,-0.045871853217249736
-0.007715961146459449,0.006995300736889476,-0.04425741281011142
-0.006469275376730366,0.01131370026996592,-0.03876967457472347
-0.006987638244027039,0.012144437278038822,-0.03497521174722351
-0.007649807230336592,0.012428818990883883,-0.03490629023872316
-0.007500779247493483,0.013521105756808538,-0.0346898814314045
-0.008992017683340237,0.01295794118050253,-0.03069449303438887
-0.013524707355827559,0.007938100679893978,-0.024460248823743314
-0.017857733837445267,-0.0017314306433036109,-0.023622624212293886
-0.019751405488932505,-0.015444842574652284,-0.03139997716061771
-0.021420722987386398,-0.029877332053729333,-0.04274282400729135
-0.024724276954657398,-0.04022880602860823,-0.05118084300193004
-0.028443775590858422,-0.04249291305313818,-0.056556298659415916
-0.0313979217025917,-0.032892268791329116,-0.05250026879366487
-0.03283888872829266,-0.01585389873071108,-0.03167153772665188
-0.03373764411662705,0.0017692024130155914,-0.005375653017836157
-0.033335312764393166,0.015822235582163557,0.010557171663094778
-0.03261995152570307,0.027317502826917917,0.020008525098091923
-0.03165781163261272,0.04050169081892818,0.02815566404024139
-0.02933696123363916,0.05583051824942231,0.029541513868025504
-0.02788071105896961,0.06510112143587321,0.02123285230481997
-0.028978385671507567,0.062320286815520376,0.008695754331711214
-0.02998230411321856,0.05138968481332995,-0.0027306016363581875
-0.029042344976915047,0.037441106542246416,-0.011234398698434234
-0.027368072551325895,0.02515497362765018,-0.019596851416281424
-0.025053928766283207,0.014829249266767874,-0.02622370629978832
-0.022328025806928053,0.006670340098935412,-0.030813731427770108
-0.01717503801046405,-0.004058852482557995,-0.04002435161964968
-0.012949440133525059,-0.0235747174883727,-0.05658257214236073
-0.013240074622444808,-0.04906779577140696,-0.07631657354068011
-0.014437682693824172,-0.07100355287548155,-0.09206483082380146
-0.014209554137778468,-0.08511920168530196,-0.09778655658010393
-0.013036548807576764,-0.0954131901380606,-0.09551049879519269
-0.011847341738757677,-0.10424768697703257,-0.09020232391776517
-0.013212497833592352,-0.1037878028000705,-0.07924606325104833
-0.016576288544456474,-0.08614090620540082,-0.0624627573415637
-0.01969120421563275,-0.0576239763177,-0.04414073555381037
-0.021740530428360216,-0.03219892460037954,-0.030706771212862805
-0.024252247385447845,-0.015693334717070684,-0.020330893676145934
-0.0264788577624131,-0.005361351213650778,-0.01273548787139589
-0.026889274522545747,0.003076346956731868,-0.008121609425870702
-0.025801240553846583,0.008538750080333557,-0.005652159416058566
-0.023790889827068895,0.011404944416426588,-0.005408227934822207
-0.022998803615337238,0.014103231478657108,-0.006510761977551738
-0.02345622851862572,0.016349131328752264,-0.00822185666038422
-0.023943672204040922,0.017402848243364133,-0.008685515240358654
-0.023998793039936572,0.01863001125457231,-0.009971528925234452
-0.023746060833218507,0.018694390746532008,-0.013048496839473955
-0.024231927454820834,0.014086280316405464,-0.01704227179288864
-0.025892257326631807,0.006422737442335347,-0.01948911631188821
-0.027353446057531983,-0.0008104639164230321,-0.020975077859475277
-0.028752216167049482,-0.005158378826308763,-0.02629924529173877
-0.029420325518003665,-0.006331331405817764,-0.029847327823517844
-0.029711169190704823,-0.004629435807146365,-0.026699734007706866
-0.029509339583455585,-0.0008194983251996746,-0.015693218301748857
-0.029536200599977747,0.006756296897947323,-0.0029963607630634215
-0.03126782030449249,0.017395243048667908,0.0029595178148156265
-0.03447862036409788,0.025144459868897684,-0.0008054951194935711
-0.03681661473819986,0.02810141450027004,-0.01259887903870549
-0.036429442843655124,0.030913957743905485,-0.02576591032266151
-0.0362066384695936,0.03604310404625721,-0.03541595287970267
-0.038576024962821975,0.042322873923694715,-0.042065807065228
-0.03955687134293839,0.04944283500663005,-0.04077006451552734
-0.03687530625029467,0.05629886072711088,-0.03109669705736451
-0.03307125734863803,0.059906462411163375,-0.02314500670763664
-0.028399424991221167,0.05838373544975184,-0.017949651009985246
-0.02553540798544418,0.05117069304105826,-0.01800091195036657
-0.023268336008186452,0.041212075302610174,-0.01793159026419744
-0.01919556234497577,0.03064596967305988,-0.012490106200857554
-0.01444974714104319,0.015914925825200044,-0.004836020707443822
-0.010458019460202195,0.0012534725328805507,0.0023819288799131755
-0.008789344974502455,-0.008914218597055878,0.00995805658021709
-0.009608502296032384,-0.019984934624517336,0.012950473319506273
-0.010480135642865207,-0.038530768506461754,0.005574324404733488
-0.00796871154307155,-0.06424896128010005,-0.009974001841328572
-0.0023739107746223453,-0.08485347643727437,-0.027149681045557372
0.0006705474788759602,-0.0852817902341485,-0.03730008756974712
-0.0008384402576666616,-0.06820880662417039,-0.03426596231292933
-0.003997536168753868,-0.04775942943524569,-0.02638478508742992
-0.006052594017091906,-0.03252882743254304,-0.022698286556988023
-0.007598973297717748,-0.023439506549038924,-0.024230990675278008
-0.010560134796833154,-0.019434468413237482,-0.0255898467003135
-0.014402511624211911,-0.01616296503925696,-0.02434726047795266
-0.017847740309662186,-0.013687092177860904,-0.02140688411600422
-0.019395980416447856,-0.012130743016314227,-0.01919059104693588
-0.021197512978687882,-0.009643960765970405,-0.018441838619764894
-0.02360212238272652,-0.005590975888480898,-0.01694935781415552
-0.02483910066075623,-0.0016056312688306207,-0.013315774594957475
-0.026231049560010433,0.0016606441022304352,-0.010468278560438193
-0.026676976631279103,0.005441845132736489,-0.011565231034182943
-0.024748729629209265,0.010563655450823717,-0.015609690308338031
-0.02269887954753358,0.01355703625449678,-0.019795585103565827
-0.02376605880272109,0.012457937373255845,-0.024206274247262627
-0.0262057419604389,0.00781491235102294,-0.02779986971290782
-0.02693107853701804,0.0035913190004066564,-0.03038961767742876
-0.026638928829925135,-0.0005035061576563749,-0.03256982017774135
-0.02617329118947964,-0.004131637069804128,-0.02989349923154805
-0.02472211235726718,-0.003938395821023732,-0.018846860257326625
-0.022731406716047786,0.0019126166534988442,-0.005440559107228182
-0.02252039485028945,0.009197689905704465,0.002226152446382912
-0.02305776251887437,0.015592895579175092,0.0030484743547276594
-0.02173857865273021,0.019366430933587253,-5.799673630235702e-05
-0.019028791939490475,0.01941279333550483,-0.004393915332912002
-0.018942801034427248,0.018054233805742115,-0.011243929293414112
-0.019634797354228795,0.01779817284841556,-0.020280800526961684
-0.02117733129125554,0.018275013644597493,-0.02485816366970539
-0.02410505840089172,0.017814478269428946,-0.027475118258735165
-0.02720680095080752,0.015237533261824865,-0.0307056398014538
-0.02952912836917676,0.012072720892319921,-0.0314885655825492
-0.031212974135996774,0.008605616130807903,-0.028588578061317094
-0.03220508369849995,0.0013893092045691446,-0.0294772853521863
-0.03187739639542997,-0.010887662938330323,-0.03951730832341127
-0.029998291211086325,-0.02498043977539055,-0.05307974060997367
-0.0274786762020085,-0.03479580846033059,-0.06105000647949055
-0.026064790290547535,-0.036718749470310286,-0.06308784213615581
-0.0270771070063347,-0.034415279515087605,-0.06329564348561689
-0.029143890060367994,-0.031072082492755726,-0.057170629588654265
-0.029056673156446777,-0.02588741153886076,-0.03176339669153094
-0.026839989004656672,-0.020065002900082618,-0.001953531182152801
-0.026351577616878785,-0.017927413864526898,0.008915079888538457
-0.026600717319524847,-0.016506177416886203,0.007261280188686214
-0.0282976652670186,-0.009693864740256686,0.004394166808197042
-0.03037886017409619,-0.003021648353751516,0.004154756879870547
-0.03050638952117879,-0.001021155640046345,8.728143541247846e-06
-0.029711227398365736,-0.002788580104606808,-0.010484126505616587
-0.030636096198577434,-0.0050413759709044825,-0.021461715732584707
-0.0324429311149288,-0.005593021342065185,-0.02764915734587703
-0.031889136153040454,-0.0071942467911867425,-0.03458205537754111
-0.028005471904180013,-0.013345109437068459,-0.04771576277562417
-0.022031914340914227,-0.018661234207684174,-0.0600055354880169
-0.01788966437743511,-0.015115911992324982,-0.06283604307100177
-0.017286549336859025,-0.004565782091958681,-0.05927342863287777
-0.015482553862966597,0.0032097734674607636,-0.055680680816294625
-0.013761347872787155,0.00545322382095037,-0.054984604503260925
-0.013914497685618699,0.005494132437888766,-0.052127346862107515
-0.01477795831306139,0.008022849215194583,-0.04520395668805577
-0.015673682355554774,0.010975552868330851,-0.03870995715260506
-0.016073050574050285,0.01071535371011123,-0.033684827940305695
-0.016537527699256316,0.006992524504312314,-0.029307631848496385
-0.016813608453958295,0.0028715066946460865,-0.02810178921208717
-0.01673171209404245,-0.0015973596418916713,-0.028802396627725102
-0.01698628875601571,-0.00791306774772238,-0.02867721013899427
-0.020392786609590985,-0.014464775631495286,-0.02430028143862728
-0.026356721718912013,-0.02038629463640973,-0.014414071301871445
-0.02928883259301074,-0.026932713808491826,-0.008722652637516148
-0.026956473448080942,-0.031683175620855764,-0.013835203390044626
-0.02515874439268373,-0.023950229660840705,-0.020162469809292816
-0.026595089366310276,-0.003487033609417267,-0.018134223864763044
-0.027349809897714294,0.016460158803965896,-0.012635779967240524
-0.02484915421518963,0.02755783498287201,-0.00891397849045461
-0.020939993191859685,0.03235092663089745,-0.0053058033699926455
-0.01995707134483382,0.03437016857787967,-0.00013638457119213854
-0.021055799152236432,0.0370418383681681,0.006468941592174815
-0.022071073544793762,0.041332335968036205,0.011012216418748721
-0.02185658559028525,0.0421599906985648,0.011038163393095601
-0.02164829675166402,0.03631796789704822,0.006399866379069863
-0.025074308723560534,0.028479164029704407,0.0024997427772177616
-0.027545638658921234,0.02145681355614215,0.001848310148488963
-0.026691817765822634,0.013123286407790147,-0.0008177694326150231
-0.027377676815376617,-7.632368692611635e-05,-0.008872016223904211
-0.02730419691943098,-0.01622578020032961,-0.024051078071352094
-0.023971892005647533,-0.033189044188475236,-0.0436671070929151
-0.01927788252942264,-0.04932653973810375,-0.05937755850027315
-0.017216008927789517,-0.06155300798127428,-0.06771853804821149
-0.01840665572672151,-0.06699718505842611,-0.06675132317468524
-0.018705461116041988,-0.06618522456847131,-0.06014499376760796
-0.017276099242735654,-0.0636596159893088,-0.052395502279978245
-0.014551846106769517,-0.06044392648618668,-0.04528467252384871
-0.011613607057370245,-0.05279867400531657,-0.03841943180304952
-0.011995594832114875,-0.03962225673603825,-0.03267279316787608
-0.014340898815135006,-0.025920029656845145,-0.02368684181419667
-0.01508561854279833,-0.017574728190083988,-0.012663586858252529
-0.014928956261428539,-0.013481731002684683,-0.004156223440077156
-0.01495431934017688,-0.010254220796923619,-0.003331961806907202
-0.018185724911745638,-0.006620211479457794,-0.008508118298777845
-0.020063795091118664,-0.0008014981744963734,-0.01586200414749328
-0.0203617582883453,0.006206092166394228,-0.02108691660396289
-0.02095781201205682,0.012269727449165657,-0.0223250226554228
-0.022372540115611628,0.016811736713862047,-0.02248384953418281
-0.024188868337660097,0.019197672372683883,-0.02303213295817841
-0.02711123670451343,0.019920682461815886,-0.023646081899642013
-0.03072599065490067,0.019612180039985105,-0.02454162859066855
-0.032892396120587364,0.019738627088372596,-0.02445207428536378
-0.03224203464924358,0.018659768102224916,-0.024906161343096755
-0.03174161975039169,0.014287735211837571,-0.02625125489430502
-0.03173034201608971,0.007894601367297582,-0.027857984605361708
-0.031561910873278975,0.002973623850266449,-0.026586367312120274
-0.031927149393595755,0.002789922064039274,-0.019631821487564594
-0.03327979356981814,0.007417445885948837,-0.009125967153522652
-0.03338704846100882,0.011415007975301705,0.0032254076813842403
-0.03054407352465205,0.01127012183133047,0.010013088285631966
-0.028243706765351817,0.007185207323345821,0.003423311000005924
-0.0289835843432229,0.0016898427475098288,-0.010019937690231018
-0.030249610063037835,-0.0010755004495877074,-0.01812684968172107
-0.02937153294624295,0.0007818948688509408,-0.02075366319331806
-0.027016863896278664,0.005310466349328635,-0.025775885660550557
-0.026343257559346966,0.008737519237911329,-0.035133620258420706
-0.027847256205859594,0.009820921150094364,-0.04125001942156814
-0.029314895073184744,0.007978680514497682,-0.03986417505075224
-0.03173502045683563,0.007700788955844473,-0.03640330760390498
-0.03196591933374293,0.01232267459272407,-0.03077196015510708
-0.030572984542232007,0.015972931578289717,-0.025373983589815907
-0.026574338335194625,0.01771410279616248,-0.02461091207806021
-0.021884961824980564,0.017621665392653085,-0.02929914990090765
-0.01822116792027373,0.016413168850704096,-0.038579528336413205
-0.017521149857202545,0.014479042874881998,-0.04411637200973928
-0.018518823708291166,0.009549860806146171,-0.043330110202077776
-0.01822892954805866,0.000539450581982237,-0.04118147262488492
-0.014968880350352265,-0.009729020348459017,-0.03838434713543393
-0.010246540114167146,-0.01624224751139991,-0.032744726922828704
-0.008373738637601491,-0.013583720829046797,-0.025968152840505354
-0.00822530455479864,-0.004865741630055709,-0.02051117735391017
-0.008892561709217262,-0.0013342715874387068,-0.016289997802232392
-0.009178053915093187,-0.005988443263049703,-0.01344961674476508
-0.011012242794095073,-0.01262801652046619,-0.016953967133304104
-0.014115129488345701,-0.019273345969850197,-0.02545833558542654
-0.016436320947832428,-0.0264268928731326,-0.03200627543265
-0.018245116734760813,-0.03253770410083234,-0.03192600706825033
-0.020116274754400365,-0.034630735171958804,-0.025492421627859585
-0.0221052068809513,-0.031130810384638608,-0.01922470619319938
-0.024577791919000447,-0.02410180968581699,-0.01516994416306261
-0.027914258680539206,-0.017025417037075385,-0.01515485200798139
-0.03250503141316585,-0.012701641935564112,-0.021107212887727655
-0.034564098314149305,-0.011374609130143654,-0.026545889340923168
-0.033698124752845615,-0.012133605196140707,-0.02795581895043142
-0.03212392039131373,-0.015640349374734797,-0.0283528625004692
-0.031239655072567984,-0.014118797480477951,-0.028602953534573317
-0.03213532181689516,-0.0045765027607558295,-0.024949764338089153
-0.03449731593718752,0.004124279712414136,-0.014135144738247618
-0.0365999985660892,0.007462305347871734,-0.003241529839215218
-0.03720144013641402,0.006442282938223798,0.0009490674415246758
-0.03675356492749415,0.004729837655759184,0.0024576688701927196
-0.03261004530941136,0.004855678525927942,0.005932950898568379
-0.025959359845728613,0.004644240107154474,0.017177817426272668
-0.021640476916218176,0.004618627826857846,0.039166538044810295
-0.01982575486181304,0.006513821972475853,0.05571854126174003
-0.017254600606975146,0.008392171366722323,0.05267491360427812
-0.013198738088249229,0.010863056559173856,0.03375192318344489
-0.006696322543575661,0.01342105861112941,0.009936891729012132
-0.0020199411210342078,0.013762925846094731,-0.012709805560007226
-0.0016555602542212,0.012829453226004262,-0.03703533730003983
-0.003967230895796092,0.011334562259435188,-0.06269854202400893
-0.0073208389039791655,0.009758723535924219,-0.0790050471550785
-0.0109102738861111,0.009724370102048852,-0.08033443009480834
-0.013479483641276602,0.011529102266649716,-0.06998910248512402
-0.015549945601378568,0.010952671800623648,-0.054153781093191355
-0.018424603695166297,0.006732324891345343,-0.04097135752090253
-0.02050169678113889,0.0002383483774792694,-0.03770731927943416
-0.019085460735368542,-0.013219373613537755,-0.048306046664947644
-0.016267698811134323,-0.031731735361972824,-0.06535736611112952
-0.016288722690660506,-0.04461173011804931,-0.07294421811820939
-0.021357071091188118,-0.047692727093817666,-0.06714049959555268
-0.0281182710750727,-0.0484754637000151,-0.06258211215026677
-0.029578617613879032,-0.055611457355553284,-0.06424292223528028
-0.025727971660671756,-0.06148596730781719,-0.062249026086647063
-0.023145395971369,-0.05544895611819811,-0.05173272074898705
-0.022239781173993833,-0.041723742469912395,-0.040363687730859965
-0.022320748030324467,-0.03296155045973137,-0.035251592635177076
-0.022995776816969737,-0.03145523805869743,-0.03538130476954393
-0.023075408535078168,-0.029222101147752255,-0.03277002906543203
-0.02455659705447033,-0.02009472154895775,-0.02227788354502991
-0.02820767622324638,-0.0065556068875594065,-0.00890991032065358
-0.032065450795926154,0.0036230921978130937,-0.003700101387948962
-0.03371846833033487,0.0069192856244626455,-0.005313626388669945
-0.0337629571731668,0.006076925728848437,-0.004450053438631585
-0.03404697417863645,0.006800984920118935,0.001689499185886234
-0.032403218938270584,0.011401060874050017,0.006546304121002322
-0.030999806767795235,0.014726307199453004,0.009530082024866715
-0.03033628308912739,0.01642447750782594,0.008626273483969271
-0.030263792723417282,0.017588234186405316,0.0032880459457373945
-0.031846364436205477,0.018675133105716668,-0.005508526101039024
-0.03373143408680335,0.01818538294173777,-0.014274189197749365
-0.033149579394375905,0.016894144209800288,-0.019473227439448237
-0.03204261520295404,0.017314328943029977,-0.019257384337834083
-0.03143178400932811,0.020333618522272445,-0.011472327969386242
-0.030768391297897324,0.02544961535022594,-0.000979181436377985
-0.02919136568380054,0.030039875127840787,0.004921243089484051
-0.026514473574934527,0.03146796370856464,0.0034152301395806717
-0.024829449102981016,0.029023716706433333,-0.0048731408242019825
-0.025472923880442977,0.024191940610762686,-0.018941018424811773
-0.024240418497356586,0.021350317183532752,-0.027567579309106804
-0.021147496227058582,0.022509557311423123,-0.028409827791620046
-0.019658426026580855,0.02362572013225872,-0.024125929485308006
-0.018962171452585608,0.02017850238189567,-0.02186778510804288
-0.018748847651295364,0.012768974556820467,-0.02321595820831135
-0.017883130567497574,0.006491101885330863,-0.024330540327355266
-0.016568670616834424,0.0010347423540224554,-0.02633305120980367
-0.015866397006902844,-0.007229831226140959,-0.036091623769607395
-0.01616052759345621,-0.020219278667354956,-0.05043485725764185
-0.015336347132688388,-0.0357041644747369,-0.06473802932305261
-0.012860071365139447,-0.04819411697098985,-0.07542820094386116
-0.010536446097830776,-0.05252252594800666,-0.0796595704741776
-0.010240773008263204,-0.0460626652056817,-0.07589004235342145
-0.011239820196351502,-0.031753763323649764,-0.06330863834591582
-0.012583048373926431,-0.015695408364990726,-0.047901892685331404
-0.014841692973277532,-0.0028145996111561544,-0.03663465031422675
-0.015839563275221735,0.0023829677502362756,-0.028090782507206313
-0.0137725537570077,0.0022737870040145935,-0.01699431231827475
-0.012962305845576338,0.0024810437935229857,-0.0013716339708480518
-0.014186938642524183,0.005123518803884508,0.011736971828213427
-0.0156345540744951,0.00575919648326817,0.014380738321051467
-0.01717055420158431,0.0018969534494317486,0.008966352652350906
-0.017126838429248892,-0.0017329047068415093,0.0059782200878544245
-0.015170411643339321,-0.001277800947718788,0.008112371688184794
-0.013513741578208283,-0.0005652666459354805,0.004806967808690388
-0.015633560906280763,-0.00466469100501854,-0.008036584404180758
-0.02014334313571453,-0.01197834535560105,-0.023926339054014534
-0.023180378775577992,-0.01860515658336226,-0.03454730176599696
-0.02393245631537866,-0.02299106381542515,-0.03871734952554107
-0.02491384293534793,-0.026045641789096408,-0.03914429180440493
-0.026280798920197412,-0.02726330239966046,-0.03623819429776631
-0.02690618384804111,-0.024235314413090236,-0.03278685107943602
-0.02683076490939129,-0.018063203242491,-0.029325387004064396
-0.028304737497819588,-0.01152990989794489,-0.025650972020230256
-0.031201485398923978,-0.007633346285729203,-0.022410749807022512
-0.03291609391453676,-0.007089841346896719,-0.019711813365574926
-0.03241663580411114,-0.006514569122373359,-0.017441943782614544
-0.03153131910949014,-0.0030855426302878186,-0.014826909136900213
-0.030824488931102678,0.0013824648021909525,-0.012275693734409288
-0.03008913336088881,0.0032599252790532773,-0.011134603482787497
-0.030050801797187887,0.003855640443362063,-0.012922671885462478
-0.029036289561190642,0.005834222974954173,-0.012034576684527565
-0.028791888325940818,0.01019917272060411,-0.008593925485911313
-0.02684260834939778,0.01493395848228829,-0.004131205514568137
-0.024714481696719304,0.0200880276679527,-0.0021556843421421945
-0.024621140255476348,0.025612718673073687,-0.007093023214110872
-0.02597672755655367,0.02902991218434181,-0.0151481372085982
-0.026006699044955894,0.029535020075854845,-0.016055715605034493
-0.02508540819690097,0.028606753403437324,-0.011886529136972968
-0.026234436518279836,0.026308087399229407,-0.010907669093285222
-0.028512362405308522,0.02125127321050968,-0.016695277736289427
-0.02808569115586579,0.014491107322101016,-0.025727304091560654
-0.02652145121828653,0.008491513654007576,-0.03123182978015393
-0.026995641746907495,0.0024126081825670553,-0.0314063327095937
-0.029274220651132055,-0.006683429091935977,-0.03406876203371212
-0.03112527701887302,-0.02101496465911623,-0.04449161497177556
-0.029766069928882644,-0.03484080662019551,-0.056869601394282654
-0.026204519599559717,-0.039819235098548234,-0.06195307651069015
-0.02311231946805492,-0.03933924017474055,-0.056471551943104714
-0.021653464500559494,-0.03646578625193797,-0.045699616748606786
-0.021973575712763704,-0.031180552468867972,-0.03508563167997636
-0.023346306988969445,-0.024591055989731103,-0.02737350223469548
-0.023854547180235386,-0.01855855771282222,-0.022776319383410737
-0.022725156668457203,-0.01425803293386707,-0.020946588847436942
-0.02232224323961418,-0.010660628504410852,-0.018563721823738888
-0.02460400719428435,-0.006334732916002395,-0.013540980944526382
-0.026872883609030396,-0.0015242333120113472,-0.009186254828819074
-0.026523275664658286,-0.0004941147722092865,-0.009895889888866805
-0.024170634787878953,-0.0031565969038638286,-0.013253523320599925
-0.021842050045961514,-0.004564874416246312,-0.01262274781765882
-0.020833087546634488,-0.0010817682323249755,-0.006376087185344659
-0.02006313115998637,0.00816809097159421,0.0058657706176745705
-0.018789865862345323,0.018174221622757614,0.013375061826081946
-0.017402886442141607,0.023684720872552134,0.0072210941652883776
-0.017812668374972418,0.02216920256614685,-0.007211554930108832
-0.018960270608658902,0.01786499888112303,-0.02352494266233407
-0.020193259842926636,0.014939731954655144,-0.031496940209763125
-0.022877033188706264,0.015383224308607168,-0.024964585463749245
-0.02366991429880727,0.019865319700329565,-0.01576723843754735
-0.019503124349284917,0.02186505480494816,-0.017534210201120004
-0.013804135960526764,0.019404840713832527,-0.028919479518663138
-0.010751677109510638,0.017294452845817432,-0.039383332477882504
-0.011352199180691969,0.016669566321070306,-0.04276190884411335
-0.015920086298137903,0.009482347195444163,-0.046506062062690035
-0.021171694243093953,-0.004173280103714205,-0.05460538523038849
-0.024389291866100393,-0.01865068952611182,-0.0623723171884194
-0.0268691401288379,-0.032907591958064586,-0.06487203791039065
-0.028124328309786506,-0.04415739022078924,-0.05853564653079957
-0.025727827960508876,-0.04580316090141423,-0.04696468386100605
-0.021368674424593337,-0.038450009014923126,-0.03610929343267344
-0.01827507912821602,-0.032729138183640316,-0.03119351458735764
-0.01814252209442202,-0.029636401450261474,-0.03406317773624323
-0.018868366169044748,-0.022773239834350534,-0.03992803976871073
-0.01958481516339816,-0.01760629857017193,-0.04110726877115667
-0.0189733000297565,-0.017963880964089185,-0.03576475501176901
-0.019220691683585756,-0.01799299570848234,-0.029894605177105404
-0.023402057195198722,-0.01319699458690593,-0.0276371902145911
-0.029396112950053066,-0.004914934379485203,-0.02539375600463245
-0.03130157710984349,0.004422731763042975,-0.020108862372580916
-0.029071134122204967,0.01241029349330347,-0.014503526472253725
-0.02740144554991275,0.016919904737733305,-0.013475523701345082
-0.026067120415973477,0.01640967275307048,-0.014606631339120213
-0.024090619263006374,0.012550777682918124,-0.013806682545691729
-0.023995446099434048,0.010248910257359967,-0.012371271623123903
-0.025086663299589418,0.00915145210456103,-0.009436309483135119
-0.02588647839729674,0.006178617695695721,-0.003654821739473846
-0.02572473749751225,0.0028491081138781738,0.005222275831329171
-0.024386854420299642,-0.003432462563068839,0.01008801791613223
-0.021132324036443606,-0.019410277673159726,-0.0007681336455789278
-0.015581057596136816,-0.03174556331941858,-0.018251441360916942
-0.012778299605997745,-0.028321335776126944,-0.02155265428882558
-0.014109397852735128,-0.015905026884865947,-0.010347439456381835
-0.015500972949666902,-0.013416592082649004,-0.005078921276435722
-0.013978368770040106,-0.023970405891304836,-0.016780433725216426
-0.010640793334459886,-0.034311717172386125,-0.03362951611052267
-0.008595646249887068,-0.03211590592400171,-0.042314655729569495
-0.009596339623385575,-0.019942504877690226,-0.043383537558838725
-0.013581563507614192,-0.00904683201952139,-0.042905379814328626
-0.018067592463921756,-0.002641889523147256,-0.04409777102409862
-0.02124581442330964,0.0024841108370310394,-0.043348587496438995
-0.024445778763038106,0.004742781129607465,-0.04018491381430067
-0.028020405807183124,0.006204944384080591,-0.03543516140780412
-0.029428014386212453,0.008580884241382591,-0.027633566787699237
-0.030161652830429375,0.013895310075895395,-0.01693395279289689
-0.030851839255774394,0.019446606529527344,-0.007709319106652401
-0.03061303505091928,0.023010850782156922,-0.002445423433528049
-0.03075703716604039,0.024924014724092558,0.0015339192032115534
-0.031976258469512686,0.024896255126805045,0.00459553484688513
-0.03360261325724423,0.023128317479859106,0.002772507514237077
-0.03499846570775844,0.018021952200797386,-0.004792954769072821
-0.035644778108689934,0.008809580322122201,-0.010229004146822263
-0.03574666698114015,0.001316974930887227,-0.009394179869559593
-0.035620872949948534,-0.0015291101362890913,-0.007083148375386372
-0.035132681659888476,0.0008231660331148305,-0.005976358806947246
-0.030577280995203182,0.005696736934623914,-0.00715451960786595
-0.02206284989370033,0.009184022019326221,-0.010437550372444093
-0.01465814966650214,0.01269655240321299,-0.01625762706680689
-0.01218297711602645,0.013441386727208737,-0.022335229004966095
-0.012099580999347381,0.01236826938111335,-0.026634204914444126
-0.013581448001787066,0.010801378266478423,-0.03249926885473542
-0.01697805964795407,0.009835584023676347,-0.03770251350942999
-0.019441316908341832,0.009734825653140433,-0.03621947325882502
-0.018125063434126787,0.009271325325244106,-0.029344526410568506
-0.01408126627211459,0.007737500709481537,-0.024461876819259487
-0.011770793207688257,0.002931331891886657,-0.021676989490515552
-0.012836467249144334,-0.005074271030025557,-0.020464374756556936
-0.014695640857098624,-0.012729868103633635,-0.021016961909481324
-0.016479665646329522,-0.019810018784482963,-0.02363263956794981
-0.017298229067819193,-0.028346334147499874,-0.026678535505197942
-0.018195056327385828,-0.03442299930611625,-0.023255188352777623
-0.01689084638201166,-0.030841609259368852,-0.017518379536340944
-0.015169155631156173,-0.01778879050107207,-0.016695164958946407
-0.014778041077079251,-0.004731727585749468,-0.021071549781481735
-0.017289436073042452,0.001764638113854744,-0.02695893454074394
-0.02084133666357957,0.0040261920730699785,-0.0300721494568279
-0.023348620743490756,0.005039744337409502,-0.03090348036494106
-0.02534439045120962,0.003916821242455626,-0.03368834950379096
-0.026225183319183998,-0.0014392250022865483,-0.03943925185012631
-0.02475734436302446,-0.008404233994951937,-0.047646983148297295
-0.02374274845351465,-0.01143925965152448,-0.05777054320788011
-0.027844758733408526,-0.012193316251796205,-0.06523850606754422
-0.032710162486182526,-0.015153927961364388,-0.07000358164077625
-0.0350974005414173,-0.01985134804272093,-0.0720444368198514
-0.03532990376697853,-0.02674511051736772,-0.06800199480494484
-0.036034245567861944,-0.03676026972243562,-0.06015511098667048
-0.03522416955092922,-0.04358045771368779,-0.054019998060539365
-0.03263488906668499,-0.04682104190578684,-0.04851495032198727
-0.02955653690150939,-0.050274877139599994,-0.04203834760119207
-0.028455451683839783,-0.049870657676365227,-0.03360302798682824
-0.0282473411061801,-0.03760433537536301,-0.018622340576257557
-0.027617981686489657,-0.01797218828869518,-0.00020261337851934513
-0.026644811441656202,-0.00502030616189586,0.01051556955644628
-0.025319319320260547,-0.004592332516040187,0.01307852471654769
-0.024002652935450897,-0.010056497558252886,0.011260857718298212
-0.023686496206209995,-0.010295847459929064,0.0068848439696012065
-0.022656544388155453,-0.0032109162475535413,0.0025201729840773623
-0.020118157408433035,0.0012777977644873317,-0.001230349880643189
-0.01984967093449086,0.0025588226435502293,-0.00528670216226601
-0.021379042664193548,0.002340800165256951,-0.01263673766516149
-0.02279057116538752,-0.0004890543436886219,-0.01566768878547009
-0.025458262825850397,-0.0029696561796299648,-0.011652249668259174
-0.02720193333516363,-0.0026019770302809775,-0.007400571575999493
-0.027032740035792813,-0.0016664660051901592,-0.007227831702039111
-0.028401584131643176,0.0006622224759667006,-0.0049289906201011036
-0.03139023465337232,0.007317476502066711,0.004071468538313638
-0.033626605727477,0.01634329601074569,0.010275937711412553
-0.035581444535637274,0.023277985746972263,0.005670081463904353
-0.036360503145260736,0.028349026251817122,-0.006211914751474978
-0.03546402513165958,0.03580714110285044,-0.015613408322678879
-0.03551111149135977,0.04173974593868479,-0.02340753962926101
-0.03349568578414619,0.03961374022765085,-0.03604618905228563
-0.0291423548333114,0.02960611709568184,-0.05191630043555051
-0.024328099243575707,0.02088389010168612,-0.06332444172585383
-0.02041662810370326,0.018570159227238037,-0.06363676948240027
-0.015461335351574235,0.01744744622556027,-0.05569310815189965
-0.009826168934523594,0.014251884749683086,-0.04293035817681812
-0.005744646841776557,0.009824681001191493,-0.02877445876947604
-0.005359785063774325,0.00245238015850191,-0.020643885363824666
-0.00718416504241759,-0.00808491404313827,-0.02182946445827838
-0.008098756552499253,-0.01594125569681637,-0.024832788767525926
-0.008522836651536636,-0.017287396985921077,-0.021631069103023037
-0.007928793820610736,-0.018372978956904262,-0.01478925423725741
-0.005558656084758695,-0.026991718186764047,-0.013074461094220169
-0.006472926543210633,-0.03663332972791977,-0.017920483514899388
-0.010946429028990678,-0.036821747926296666,-0.02196129753428977
-0.016477271856274456,-0.03405924508115277,-0.02477010821166914
-0.01848317333497107,-0.034093623980879784,-0.030094686735537834
-0.018629489204613492,-0.03649265272542834,-0.03694233964779414
-0.019951819922425784,-0.03672599996207282,-0.04040329440613277
-0.022602553144679405,-0.031516781746177,-0.03941003524232656
-0.025013294361997396,-0.021620186089421622,-0.03571453635231592
-0.026999316105502658,-0.011821996849903371,-0.03140557964798063
-0.028335791284916922,-0.004477109087019926,-0.02532753387640696
-0.027561127353692427,0.0019206991055398248,-0.020397435946506448
-0.02707894418563228,0.006149784439912764,-0.02051992851193063
-0.029098666345817037,0.00880279276316287,-0.024360884708585218
-0.030011689887032844,0.009533291631669272,-0.02843891707016155
-0.02842494177457411,0.008189663276425563,-0.03083315459662117
-0.027714278985513374,0.005058409442426637,-0.0314673779939767
-0.027502710508997552,0.0049198429223906714,-0.029872560844523832
-0.026598259864840657,0.007385197477560723,-0.02813576975313481
-0.025185854610754177,0.008989069101517089,-0.027840080292662606
-0.024122733520925976,0.008580835128668696,-0.02769991806417238
-0.023276330466615036,0.00803226612333674,-0.02569683601905126
-0.02290864722453989,0.006211329036887037,-0.021801812181365676
-0.023397020413540304,0.0033120195439551026,-0.018668950360734016
-0.024726798073970713,0.0025224203454854432,-0.015609699403285049
-0.025135130272246897,0.003937067049264442,-0.014087220733927097
-0.02503980795154348,0.0042056472011609,-0.015782949049025774
-0.026997777240467258,0.0015122875538509106,-0.01779731064743828
-0.027414835130912252,0.001991896169784013,-0.015638421245967038
-0.025366549380123615,0.004203249318379676,-0.005948281796008814
-0.023578235413879156,0.0063561819843016565,0.003522280167089775
-0.02309198862349149,0.005694420451618498,-0.0003359065203767386
-0.02320293424418196,7.282956460130663e-05,-0.014500980796583463
-0.023996664822334424,-0.006703028248011833,-0.02574916106823366
-0.025042179913725704,-0.008712253475096077,-0.02928466710727662
-0.02492756539140828,-0.00584643566980958,-0.027994556148769334
-0.02458322524034884,-0.001519412421657762,-0.025454071874264628
-0.02386591768299695,0.0028071674478269415,-0.023689501176704653
-0.024230774215538986,0.0060444599512265995,-0.01732914097374305
-0.024320750526385382,0.006251239028642885,-0.0071688327807351016
-0.02580417822173331,0.004758316663355799,-0.003445751644903794
-0.02739125739026349,0.0024562464204791468,-0.005986905307509005
-0.028937616662005894,0.0005789293027191889,-0.008958113539847545
-0.030945189791964367,-0.00032033096886152634,-0.009825044799072202
-0.0316411278618034,-0.0010505751788514317,-0.011806894690380432
-0.029700155209866352,-0.0010630104725350975,-0.016057309039752
-0.02783630225167144,-0.0008402179219046957,-0.020787911125808023
-0.026366345991846174,4.707969125661293e-05,-0.023005472030490637
-0.02448729719617404,0.0016558692550461274,-0.021499388822121546
-0.021589852622128092,0.0019733784029085655,-0.018845086742658168
-0.018959675799123943,0.003020460781044676,-0.01806624641176313
-0.01581044853082858,0.007430269761243835,-0.019439339666860178
-0.012693230019067414,0.011699442438839469,-0.025494467990938574
-0.012546869584184606,0.009471207704336848,-0.0369172339560464
-0.013608430890599266,0.0048707656787883025,-0.049814068916020915
-0.01379990681016352,0.0008402604976254224,-0.05796150799142197
-0.014569703125744127,-0.004362420440884307,-0.05832542956341058
-0.01526107735116966,-0.009962559488485567,-0.05676341970684007
-0.014792119145567995,-0.01328651160292793,-0.05503126158146188
-0.013090244465274736,-0.015797004380146973,-0.04998851363779977
-0.012116031030018348,-0.018780172467813827,-0.04332567550591193
-0.011905892279173713,-0.022891676053404808,-0.03875274342135526
-0.01371169310004916,-0.02551281068008393,-0.03775326331378892
-0.017604157619643956,-0.0239469445659779,-0.034881366445915774
-0.021581670807790942,-0.0196555756701855,-0.028182812457089312
-0.025072282369364984,-0.01450109721190529,-0.019955356037826277
-0.027033787773689255,-0.007949270184326451,-0.010860512702492997
-0.02798574132611975,-0.002368324658164056,0.0007232997063510993
-0.02944382322311867,0.001940284619195154,0.009362014679936692
-0.0310003524646163,0.0052450823204708286,0.012458071978471708
-0.03048436701647006,0.008827049896353856,0.010551398190727923
-0.028841508537880145,0.011416206689318642,0.0036136750622972613
-0.027263949959888123,0.010012050552177243,-0.006171999302750919
-0.027416925149736926,0.007962495146784931,-0.016748905181884766
-0.028528302209451795,0.00826782616059063,-0.02464013232383877
-0.02939473961305339,0.008423278814007062,-0.027115736884297803
-0.030039935154491104,0.0056686690186324995,-0.024585959181422368
-0.030198601962183602,0.0019000697193405358,-0.021293957615853287
-0.030877119570504874,-0.0011230742984480457,-0.02059035796264652
-0.03303346238681115,-0.0049472509999759495,-0.022656575310975313
-0.03496867066132836,-0.011438077308412176,-0.02252027297799941
-0.03423173620831221,-0.01927718403749168,-0.020996272724005394
-0.031681360269431025,-0.026831756258616224,-0.022674876163364388
-0.025747423933353275,-0.02810565820254851,-0.028006179491057992
-0.019510454876581207,-0.02342467814742122,-0.031522333301836625
-0.01631047962291632,-0.017381233192281798,-0.02981188845296856
-0.015435291061294265,-0.012676908227149397,-0.026623363737598993
-0.01442733992007561,-0.01084808445739327,-0.02628785114211496
-0.013086811122775543,-0.010755159564723726,-0.029437547709676437
-0.013270944691612385,-0.011299192010483239,-0.03332217238494195
-0.015892992450972088,-0.012257977687113453,-0.03450889198575169
-0.018554892449174076,-0.010848809324670583,-0.03161699351039715
-0.020372475773910992,-0.006426781965274131,-0.02685136132640764
-0.0215291183849331,-0.0013647485275214422,-0.025727380489115603
-0.02214647247456014,0.0036690632896352326,-0.028569460482685827
-0.02444398523948621,0.009121092261921149,-0.03315540016046725
-0.027923157176701352,0.015439727576449513,-0.035757770092459396
-0.029635873943334445,0.018243024896946736,-0.03873023888445459
-0.02895256329793483,0.017908047084347345,-0.03827713953796774
-0.026794656150741503,0.01874806548585184,-0.03364354051882401
-0.024204866349464282,0.023084472559276037,-0.027794629204436205
-0.02258196946058888,0.02822527676471509,-0.020569414118654095
-0.022352855012286454,0.02940430749731604,-0.009867667358776089
-0.022480993720819242,0.02946704626083374,0.006140322966530221
-0.020620420400518924,0.029349015676416457,0.021429917978821322
-0.014590500541089568,0.025961955543607473,0.02634966585901566
-0.00725381414667936,0.01844323742261622,0.023983749997569248
-0.0030952667202654993,0.007066877969919005,0.019464237993815914
-0.005201506155572133,-0.011206760063942056,0.01461662304791389
-0.009953790140571073,-0.03379596819286235,0.005395323114498751
-0.013326135558600072,-0.05382002564147115,-0.00991412980511086
-0.017008354916470125,-0.06434616079786792,-0.029295453714439645
-0.0242652022279799,-0.06191142165334895,-0.041821287595666945
-0.03143133653793484,-0.05093451545690186,-0.03432609446463175
-0.03441551234573126,-0.039675716834608465,-0.019694356524269097
-0.033535958209540695,-0.03351312625454739,-0.021662966901203617
-0.031250801839632913,-0.030679122573928908,-0.03574584115995094
-0.02808755925798323,-0.02814065373968333,-0.04692687434726395
-0.02467463127686642,-0.02600265361252241,-0.04902460568700917
-0.022598977011512034,-0.023188689738162793,-0.04693156370194629
-0.022329775674734265,-0.019986615370726213,-0.045305183448363096
-0.022801079467171803,-0.01318839713349007,-0.04064035238116048
-0.023683325707679614,0.002022962689807173,-0.03237692726543173
-0.023885566406534053,0.01760745726642199,-0.01662514296185691
-0.022756301405024715,0.02634559314174112,-0.0029883185561629944
-0.021127414584043436,0.029033693863311782,-0.007022468253126135
-0.01825436447688844,0.02735806083364878,-0.020951190890627913
-0.014281175936048385,0.027385565772419795,-0.028564212698256597
-0.012674532626988366,0.035159126127837226,-0.025310146156698465
-0.014515689144900534,0.04666682434617542,-0.020315583242336288
-0.017636393749853596,0.050855054723797366,-0.019808680008281954
-0.018156893929699436,0.044979973608860746,-0.023134614821174182
-0.016662415873724967,0.033347660064464435,-0.025643301341915503
-0.016844505807966925,0.018033611922874115,-0.03199609272996895
-0.019747136320802383,-0.004531697413767688,-0.05104214505990967
-0.023152346329879947,-0.03182923319400288,-0.07331113010877743
-0.028665546778938733,-0.045480948756448925,-0.0777042077970691
-0.032930085581028834,-0.03959925379604101,-0.05940432311035693
-0.03496588396956213,-0.030066250474192202,-0.03926796489395201
-0.03418503183638677,-0.028822763852076605,-0.03761985499295406
-0.03224148531444371,-0.03533731432980858,-0.04921010258840397
-0.028696169465547428,-0.04742484088637866,-0.05663502088282257
-0.024615781512693502,-0.06149513501441106,-0.05687982775270939
-0.02220542410213966,-0.07569746230728924,-0.05771422729594633
-0.021648986148647964,-0.08621532469987869,-0.061982071201782674
-0.02338965168746654,-0.0828413903946057,-0.06064664194127545
-0.026046554921776988,-0.0613857846474275,-0.047044137318152934
-0.02667422450031154,-0.032925479899859056,-0.027919973945245147
-0.02571728327893652,-0.011976258974755183,-0.013102261618769262
-0.025118657504208386,0.0005360897716855106,-0.0059066251196782105
-0.02344634776818566,0.011175843610544689,-0.0018931002614408499
-0.023241456801770255,0.018125816495739855,0.0003174683058659866
-0.024682885850779712,0.019689749024109915,-0.0017140887393907178
-0.026404619347886182,0.016696170860086568,-0.006757114988431567
-0.02881408181565348,0.013201476576796267,-0.011401300980651285
-0.030857292586006224,0.01193144817079883,-0.014236898095987272
-0.03146200833725743,0.011903191079909448,-0.014755409210920334
-0.031178031349554658,0.012352355042821728,-0.015021169019746594
-0.030462853828794323,0.012104857887607068,-0.01504244028183166
-0.029952552722534165,0.012059461369062774,-0.01402449925080873
-0.02873748780984897,0.01193101707031019,-0.01362256080028601
-0.02806670090649277,0.01254762628377648,-0.013593979019788094
-0.02853385558410082,0.01257984695257619,-0.015269222785718739
-0.029203551093814895,0.013117572052578907,-0.018932098100776784
-0.0288860137516167,0.015599269318045117,-0.02297014361829497
-0.025987748813349754,0.016258372852462344,-0.023354677978204563
-0.020844638129347004,0.013939094969828147,-0.020713496269308962
-0.016547437553526834,0.010605502211546991,-0.016671305274940096
-0.015274514225893654,0.009330199645773973,-0.01196321773022646
-0.014060599824006204,0.011300999176455662,-0.010596319953037892
-0.01094306935556233,0.013667688108398579,-0.014911476682755165
-0.008450649147562217,0.015561445252387784,-0.022252523194765672
-0.00665072229821817,0.017342073988402262,-0.026412937586428598
-0.0059346984926378354,0.019439436073298566,-0.023753829736961052
-0.006471492270065937,0.021730120352003723,-0.019419863747316413
-0.007833627932996023,0.021037059923401102,-0.01864156365627423
-0.009664895515015814,0.018993976482306607,-0.01703613634163048
-0.012634434824576601,0.020370385755086318,-0.01382398659188766
-0.016487125321873464,0.023945729481056333,-0.005871944722457556
-0.020671208403655328,0.025854216801235452,0.002932690676971106
-0.024780410967650823,0.02399836557742674,0.006539084097312298
-0.027428503017290495,0.018744010958471335,0.0055997015806497075
-0.028194828701089136,0.010823702723428141,0.0006496716764559096
-0.028642069082707167,0.0008176821211236529,-0.008383340173168108
-0.028978565751458518,-0.00823434857011307,-0.015756750144646503
-0.029270147933857515,-0.013960368050902616,-0.018795257346937433
-0.03041729360120371,-0.01684993549133651,-0.02022077387664467
-0.03157030732836574,-0.019271165001555346,-0.0255985669355141
-0.030488623451674357,-0.024144530470948666,-0.03072187610086985
-0.02652801231306512,-0.030356051865965128,-0.028872176699223928
-0.023546788725070655,-0.034392396628391,-0.023846943804528564
-0.022138867279863916,-0.03342264608363621,-0.021593428755295463
-0.02358475285291206,-0.02868863521143794,-0.021327388822101057
-0.025976934921345674,-0.023812179279047996,-0.021108229702804238
-0.02656366996234283,-0.020377403416205198,-0.021214262233115733
-0.026427536795381457,-0.019140556105412543,-0.022960157366469502
-0.026432497179484926,-0.016900354239623994,-0.022541225916938856
-0.024372153347940184,-0.010565844604570884,-0.017471174942329526
-0.0203172312467359,-0.0019897311176464427,-0.014055019164516125
-0.020203278836561367,0.004078564870724222,-0.0155671987158712
-0.02378337194386404,0.0038299881452985574,-0.021199786715442315
-0.027333928301231936,-3.4347600319506455e-05,-0.02915955519711133
-0.029954060664749704,-0.002776821247607586,-0.039244281651917845
-0.029602817448903807,-0.004186184924037661,-0.048372818127973005
-0.02662025326571893,-0.004082443865627283,-0.049348833272233605
-0.026321860786993057,-0.0008357629326383176,-0.04428205647855066
-0.027955111363553442,0.003528247589201783,-0.03959966852562502
-0.027864482035511173,0.006443775873776758,-0.03519210440572351
-0.02489587859599851,0.010046535862784367,-0.027862339265993796
-0.02234859493910335,0.014701511645398568,-0.01959205837920308
-0.020726927687064745,0.01621380215510726,-0.014619902685808484
-0.020180792489554733,0.014212495443644002,-0.010091131116496399
-0.021725430997321382,0.01242065081896726,0.0010622079571476206
-0.024663502699695528,0.012749224879371468,0.017935015421244316
-0.02834309452737216,0.01405151306244079,0.027358042643754743
-0.029646604161825962,0.01614039865671657,0.022339823772199452
-0.02703499558265321,0.01393230922985822,0.007913573426776566
-0.023700249585090205,0.004086706667294493,-0.009477109415456653
-0.02174517430830747,-0.007990978701855056,-0.02548799784563016
-0.019790011720033363,-0.019637627701740712,-0.037920377508271486
-0.018262071534991264,-0.023830672944313847,-0.04607033042702824
-0.020569998014252633,-0.020718038285849616,-0.052065726777072996
-0.02526465141272638,-0.017199316062033176,-0.05976490501780063
-0.028384583856677637,-0.015500874724239111,-0.06773047061869875
-0.02973543814732693,-0.017074125935323536,-0.07117248605936766
-0.030766877898713574,-0.0218472232518252,-0.06703413964714855
-0.03105640280409716,-0.024926654077717103,-0.05525826054508798
-0.029958206141600385,-0.02355625656491611,-0.0461165836895816
-0.029115737561369315,-0.018569593521533534,-0.04660880222218111
-0.029035039915470406,-0.012457788216124754,-0.049401885917177424
-0.026279501980752684,-0.00962915873969905,-0.04787620491697453
-0.02403473263257183,-0.011183890819665976,-0.04391622860566713
-0.024032327928580344,-0.015133647139009554,-0.04400535181048326
-0.022400241505238228,-0.01498034271207871,-0.045229429815663025
-0.021486739569809288,-0.010711964932852425,-0.03836291580228135
-0.02087595930788666,-0.006450942692026729,-0.027032829166273586
-0.020076306100236252,-0.004399348199513042,-0.020377736291266046
-0.01815151517803315,-0.0036603848911909154,-0.01839728247432504
-0.015373769201687537,-0.004486289071792271,-0.018182352505391464
-0.012080016858817544,-0.007022666522971122,-0.019695562514243647
-0.007434419330820674,-0.00738609378458932,-0.01915451866807416
-0.002383749233558774,-0.0006485685162260779,-0.012372991477604955
0.00033976343161157274,0.012270311344764195,-0.00040787421085042297
-0.0004979617642675294,0.024333556211786345,0.014582497897208668
-0.0029731777431152295,0.027809761377284303,0.022201174942892976
-0.004876862476521637,0.024033925001276657,0.014471540453087073
-0.0073968435572169255,0.014876277418807149,-0.001785082872629573
-0.009825737834034953,0.004320552761782892,-0.017397504052496515
-0.011985770470346324,-0.0017964321159524843,-0.02350169415876735
-0.014598308553104289,-0.005239051006356021,-0.019341767256264575
-0.01870597589004319,-0.007923049452074338,-0.012416441677487455
-0.02415405833744444,-0.007855021067371126,-0.00671063935442362
-0.029027909477008507,-0.007284876119229011,-0.002649693669809494
-0.03187108086422086,-0.009559031241224147,-0.0014952453284422518
-0.033211599657079205,-0.015736017303424887,-0.0069742186497023795
-0.03325655416119844,-0.025867591830319725,-0.018627719327923842
-0.03145979280816391,-0.03896794805768877,-0.03256509444327094
-0.030059609343879856,-0.04520461880019866,-0.041302424506284297
-0.030470082492684014,-0.04166883445577696,-0.041793453419813886
-0.031220788514474407,-0.033288466511294246,-0.03878027928294614
-0.031002422474557534,-0.0238067950704135,-0.038543275877600536
-0.030494671591441147,-0.017732785636326298,-0.039768860006006435
-0.03180306885042228,-0.012575900655065197,-0.0384295781259425
-0.03388585173524916,-0.007301637651835335,-0.035287732316646725
-0.034036507713608444,-0.003023157660209108,-0.03501118044368923
-0.032475531043019146,0.00018768005816127697,-0.03637505869846791
-0.03089711390202865,0.004339576662459876,-0.03370990452822298
-0.029639486456289887,0.009366184713144321,-0.02821787347784266
-0.028230741008883342,0.01082565631804755,-0.02845204471668694
-0.027721116566681303,0.009062444405572023,-0.03288174048066139
-0.02769408638414461,0.006873518032080028,-0.03391807331354357
-0.02769617822195869,0.006747686711605638,-0.030679850169690326
-0.027545469492906705,0.006866229796287371,-0.030684575904160738
-0.02654342824826017,0.005739566404372454,-0.033614498534007
-0.02591511292848736,0.005934424279985251,-0.03293126792414114
-0.026241170417051762,0.00952408299781382,-0.026587989850668237
-0.027335514459991828,0.014507595551549457,-0.018856313545256853
-0.027531772502698004,0.017830207070801407,-0.013281680367072113
-0.027423720894148573,0.019413353584241122,-0.011783745321736205
-0.027809561288449913,0.020208284695399925,-0.013585145097749773
-0.027036772735300474,0.02054656761174556,-0.014442204701481387
-0.024781982574495487,0.021474139430210926,-0.011295154763502069
-0.022251026166486554,0.02402114841970615,-0.003142313289572485
-0.019734081433853135,0.028540664061438292,0.007178099622251466
-0.017871754607767798,0.03267621650593355,0.014265073332353495
-0.02039373794104904,0.031112987926462665,0.01413314021192491
-0.023365410015685484,0.02471378684276715,0.008877537766238675
-0.019768021957133897,0.016907619283301756,0.0007048143402244023
-0.013659012438438367,0.008230739695136435,-0.005317773229762679
-0.009527382644591853,0.0012348633617875748,3.649064339583674e-05
-0.007978766006999649,-0.0006242912604648154,0.010748906788649037
-0.008282741873699706,0.0005697045821762003,0.010061118700832594
-0.00967138748819707,-0.00016264829127976554,-0.004264357357897097
-0.012832327229261864,-0.003534789811965311,-0.020461100575630553
-0.015492174497921951,-0.009136627340922132,-0.03314269633847289
-0.014098583051236346,-0.016811150999274105,-0.04498908674577251
-0.01158640043286141,-0.026033405447378755,-0.05427123687695712
-0.011917372830794193,-0.03388139884918928,-0.05656202483805828
-0.015501891539315693,-0.03651130828075111,-0.05617831266135909
-0.02128312553395517,-0.03761131301871501,-0.057413217291468754
-0.025448880478506908,-0.03893499888363294,-0.055426986364182085
-0.027619900720310397,-0.038736452552257106,-0.04932972296955995
-0.02983756894536782,-0.03637031477410346,-0.043254771298961714
-0.03181717693223618,-0.03625285535235889,-0.04297109262552112
-0.032559255487285554,-0.040554750739829615,-0.0494004380016122
-0.03187283800798468,-0.04312306555220857,-0.055777538364054635
-0.03071478204219602,-0.03925094279111363,-0.056467320973752066
-0.029145492590032518,-0.03142081186524592,-0.047709767386550084
-0.027606263756752014,-0.02256978586956393,-0.03404541712370701
-0.02483628486515954,-0.010849204045371152,-0.02157625749532599
-0.022240490579861216,0.0010650055628502741,-0.013215293620305602
-0.022549149434780702,0.008911646546039265,-0.00500207943332498
-0.02406936437182594,0.013684845725947525,0.0005716196938010398
-0.025112438379437663,0.014219533113646321,-0.0013655663906320115
-0.02779253372864332,0.011584063031477854,-0.008483460078423377
-0.030273176889750175,0.008304055882035755,-0.014815379472565837
-0.03002918674610555,0.003979072516813176,-0.02103531005559489
-0.028723448849632405,-0.00398360452891211,-0.033997064747381955
-0.029102111511747353,-0.014857965652481653,-0.051608374633360654
-0.030138249712763354,-0.02678179953363724,-0.0647257111268118
-0.030020601116120815,-0.035077104257652536,-0.06281038076849654
-0.029233458917587996,-0.030502355002681725,-0.04523237657849677
-0.02675131145224441,-0.01474493728892412,-0.024243896405096166
-0.023257278371602297,0.00017415656827779458,-0.013547349226428196
-0.019472739950288087,0.009869387213257141,-0.010251067578792572
-0.01634176805964671,0.018257613191963173,-0.006128029326646356
-0.012190967026981525,0.021775515051558614,-0.004861964043811895
-0.00882887343323091,0.021035351892351173,-0.003418313326619682
-0.008702520062797703,0.023490489184041508,-0.00159975979840965
-0.00789306159276748,0.02587235940154642,-0.0030505223094223766
-0.005203963610256324,0.022692604034091346,-0.010774631846288685
-0.005667045570589835,0.017135396774392575,-0.020709172531496733
-0.009553942618367728,0.012604883522726595,-0.029466669730027206
-0.013314108400663827,0.008585545401729178,-0.03747232040041126
-0.014512843335978687,0.004226134478813037,-0.04502875162870623
-0.015558978702756576,-0.0006129928920017846,-0.047929210268193856
-0.01800700556486845,-0.005694745141227031,-0.03925130658899434
-0.022005535356584005,-0.009421209142601583,-0.02197889807575848
-0.023364136723103,-0.009180044798995368,-0.01092754700948717
-0.02462933298374992,-0.0014634133549407125,-0.005871930170542328
-0.029101343898219056,0.012143626918259542,0.003786988145293435
-0.032045896659838036,0.025598375941626728,0.00984614780463744
-0.030444114599958993,0.033600881579332054,0.005780554147349903
-0.02981633042509202,0.032449512218590826,-0.0011146490805913345
-0.031522446079179645,0.028056339942850173,0.0013407340020421543
-0.03220773578505032,0.028339874916127883,0.009442980626772624
-0.03058696529478766,0.028937740353285335,0.010904329428740311
-0.029823238946846686,0.02471681909810286,0.00213691691897111
-0.03079122325289063,0.016731159121263772,-0.008601693480159156
-0.028914886570419185,0.00725429117665044,-0.014023275980434846
-0.025278028260800056,-0.0034431475341989426,-0.018787233784678392
-0.023665965272812173,-0.01489859278080985,-0.022655662178294733
-0.024156604922609404,-0.027187388695892878,-0.02403806138318032
-0.024152928745024838,-0.03931810351787135,-0.0294277306238655
-0.025450488465139642,-0.05029326712246984,-0.034557768231024966
-0.026875355615629815,-0.05842718746862374,-0.0385087842005305
-0.026087409423780628,-0.06505781493615359,-0.04224250005790964
-0.02475154360581655,-0.07064088276820257,-0.04666211680159904
-0.02382903767284006,-0.0731954860384576,-0.05315049202181399
-0.02386488085903693,-0.06732464680681005,-0.05513521682587452
-0.024225540983024985,-0.052586488891392946,-0.049371537897968665
-0.024338392904610373,-0.03525112333591096,-0.04211119085084647
-0.023929254894028418,-0.022603102479479276,-0.03691121673909947
-0.02427934668958187,-0.016462534404126927,-0.03206360634067096
-0.024340728487004526,-0.010802066753967665,-0.025436460418859497
-0.023109725589165464,-0.005061436695541488,-0.019639266611193307
-0.021656025637639686,-0.0013445625199892675,-0.020083227354916744
-0.02180388582928572,0.0003677934898860258,-0.024211996787926182
-0.022449708922067657,0.001678266244198312,-0.027125515771331266
-0.021710126020479947,0.004149057986069238,-0.02847055293386802
-0.01986809184018057,0.006502774795080768,-0.0285729347524466
-0.017998916518990882,0.006508686965389643,-0.02739405863394495
-0.01584088386152871,0.004670113867177861,-0.02598779792606365
-0.013566937923314981,0.006400847723853076,-0.02651572140166536
-0.011934188478335273,0.012113669981772546,-0.02679706085473299
-0.013138774193066638,0.016421729014837183,-0.023688569854130037
-0.01545447958051227,0.017535163351567462,-0.01983751280931756
-0.017479176676715724,0.01794775562302675,-0.021459109120769426
-0.01963772956514731,0.018615726730786264,-0.0250143730227137
-0.02292032695550006,0.01763137333909981,-0.026292480470146984
-0.02674734605534468,0.01761077146511525,-0.02524779483792372
-0.029551460102084093,0.018572391127236187,-0.0221357295231428
-0.03153751458739862,0.016993226381600834,-0.020517078155535273
-0.03213706077076495,0.011972116226388607,-0.021466157704708166
-0.032712541724322364,0.006909880539751612,-0.021441237549879588
-0.03246372943976894,0.004018451363663189,-0.0161414391186554
-0.030376402719412,0.004261043613951188,-0.0035424916404735995
-0.027085072360932827,0.005834596777276602,0.009110466635320336
-0.024777364160399884,0.0029736661417700816,0.010806917998706922
-0.025970364731620066,-0.004138009899179451,0.0015215606481433497
-0.02695407238206826,-0.008686974979355,-0.013012444469495676
-0.02589172072475776,-0.009047567800735123,-0.024117474822560325
-0.023280186724150553,-0.008863374205247965,-0.029466689738910645
-0.021443616788019426,-0.007207178896351252,-0.03214162643416785
-0.019104703824268654,-0.004274605544196675,-0.03455303158261813
-0.014471726899500936,-0.004174145033175591,-0.036389901652000844
-0.009581872291164473,-0.008508691280439962,-0.03765751898754388
-0.009713985491544008,-0.008691993571119383,-0.03674694016808644
-0.013693985238205642,-0.003972065769630717,-0.03543363345670514
-0.016346357369911857,-0.0021463172288349597,-0.035448396374704316
-0.018117643776349723,-0.005015932401875034,-0.03891324013238773
-0.019970304492744617,-0.008955298653745558,-0.0473762302135583
-0.021135560018592514,-0.012298142792133149,-0.0546215487702284
-0.021595713405986317,-0.014765157175133936,-0.0543262722203508
-0.02289764233864844,-0.015742140021757223,-0.045375672925729305
-0.02366184526181314,-0.010414481948828325,-0.03107927113887854
-0.024519797079847194,-0.0010687383564800257,-0.014086010196479037
-0.024671846404089592,0.0056167923503380734,-0.0018662359480003943
-0.024750099328230135,0.010736780495790299,0.004661768798541743
-0.024907767510740086,0.015162263480306137,0.007758850188110955
-0.024800907340249978,0.020053521438967437,0.008463648555334657
-0.025451725377934054,0.02365957152505871,0.00882957556314068
-0.026279742087353952,0.02361810766160488,0.007246910172398202
-0.026616258764988743,0.020693712940555997,0.0021178020688239485
-0.027136871722177602,0.016833286281325854,-0.006756308266631095
-0.02810022488120012,0.014136676327325404,-0.015599704056512564
-0.028643024052144028,0.012762099686369766,-0.020907526049995795
-0.02751031752268318,0.009630712156649679,-0.02372876406298019
-0.027519308787304908,0.0047001831262605265,-0.028199132430017926
-0.03055030174436979,-0.0018942189399240306,-0.034104617952834815
-0.030614970455644652,-0.009215997124556452,-0.03563363861758262
-0.02811764170473907,-0.017574428056832403,-0.03832701622741297
-0.027548465368454345,-0.028458660381147638,-0.04496118344832212
-0.02986510116897989,-0.038348225643858314,-0.050893646402982995
-0.03162888242513873,-0.041634077206254005,-0.051498205721145496
-0.03139635009574704,-0.03722341716638766,-0.04840339533984661
-0.030871662602294236,-0.02847889300028328,-0.04400020043249242
-0.032079260563477874,-0.01779185731720645,-0.03721070970641449
-0.03396479951334186,-0.008883035661710892,-0.02782903357001487
-0.03349388498463668,-0.004222055849822937,-0.021216219465713948
-0.03095821011811495,-0.0029695549983443925,-0.02058088648482226
-0.02883589877455961,-0.002837283318513073,-0.020016046619275585
-0.027034222512156703,-0.0018665322158994968,-0.00995227583189262
-0.025230232495232485,0.00045828662109670404,0.001277593014492595
-0.0235957504628459,0.0019785779841186013,0.0016179486692635692
-0.021743571778642945,0.003461146434347029,-0.0050964972615474835
-0.0201197290152777,0.00700550617693807,-0.011593451745284256
-0.020002915334771387,0.012938017789565492,-0.013210479664849117
-0.021245607058517635,0.019312568838358857,-0.013792254321742803
-0.022155225451570004,0.02389915971434675,-0.020632183804991655
-0.021339747036108747,0.02612318712635897,-0.03342497439007275
-0.019189123122487217,0.027149235393153504,-0.04478341361391358
-0.01760125087457709,0.031059684260981157,-0.048228328523691744
-0.01591954605828505,0.03459842628217302,-0.04437185634742491
-0.014126615496934392,0.03119998291367665,-0.04125031773583032
-0.011670085768855643,0.02299311017850414,-0.044321452151052654
-0.009073064575204626,0.012967742804903537,-0.04993091351934709
-0.00437417975263088,0.004486115358304232,-0.05127662734594196
-0.0017722874190440052,-0.0024435159957647556,-0.044617587263928726
-0.0025265371732530184,-0.008089137736533303,-0.032555490179220214
-0.004750216248794459,-0.015045516192913055,-0.021685824322048575
-0.008983613952295855,-0.024453651349176653,-0.015725421690149233
-0.0129510517581366,-0.03717562140082009,-0.018170103430747986
-0.01480486480431864,-0.04825767973670736,-0.0250755219894927
-0.01500309917901177,-0.05545606472878717,-0.02924706495832652
-0.014936510524421465,-0.06109518290031701,-0.02709072759898845
-0.016240777767961845,-0.06678260979242623,-0.022084826923673972
-0.016761247024987824,-0.07580864621559158,-0.025520406779833138
-0.015081051060406025,-0.08358518243767321,-0.0336597440764308
-0.015602125131408684,-0.07706714677624404,-0.035071814636467025
-0.019307726688566618,-0.05331871579983272,-0.03169636693201028
-0.024201097403420135,-0.025516656023683026,-0.029868218916817568
-0.027879243134520948,-0.004874168098467635,-0.019974026145064272
-0.029951861506560817,0.008053800229390617,-0.005084095846541459
-0.03011884109582752,0.013247969036456198,0.0032222642403212376
-0.028776890758308582,0.012083430192433298,0.0022710546545567922
-0.027167030566488393,0.010563774594629649,0.0008987277055894083
-0.02654726449691225,0.011377630471542943,0.0027181970381207066
-0.027137200959259644,0.012576359949889593,0.0038356824916263577
-0.02760460483841598,0.011573215488169808,-0.0004485460465275537
-0.02960510755656287,0.007386063771264162,-0.010631306395225693
-0.03227679189876653,0.0017940166117114131,-0.021792291590827517
-0.03466039561317302,-0.003673882929433603,-0.02947599205072038
-0.03568291140254587,-0.007574648861918831,-0.03228712739655748
-0.033839114621514454,-0.008423526196565945,-0.029691107556573115
-0.032887965062400326,-0.006652865067735547,-0.024291373847518116
-0.030661460186820477,-0.0029979526061651995,-0.02020553802140057
-0.02769385901046917,0.0021809773897984996,-0.018772338080452755
-0.025888548407237977,0.006888417374284472,-0.017073673006962053
-0.026317000447306782,0.009388938451593276,-0.01511158643552335
-0.027681355277309194,0.009707259778224397,-0.013925094208389055
-0.028507438400993124,0.009577299351803958,-0.01503973726357799
-0.029180218916735612,0.010616273357300088,-0.018565480786492117
-0.02936730561486911,0.012000412425550167,-0.02039281571342144
-0.029379887564573437,0.012955455531482585,-0.022097226974437945
-0.030605624488089234,0.013568444046541117,-0.021991529138176702
-0.03206455585313961,0.013251426025817636,-0.01900093411677517
-0.032524418202228844,0.01162802982435096,-0.015701349184382707
-0.029889053621445782,0.009523379048914649,-0.012386698472255375
-0.029227625418570824,0.006769324954802869,-0.008746064850129187
-0.030409990358748473,0.00402777277486166,-0.008289472134492826
-0.02892148586397525,0.0026173979676968884,-0.010283779374731239
-0.025847313736448996,0.0026169896045757923,-0.01264601269213017
-0.02259362918266561,0.004932941010338254,-0.015119680938369129
-0.01950571640918497,0.012578979294630699,-0.008976524441095535
-0.0183397060027346,0.027166272047907114,0.00798690780356992
-0.017688424122752622,0.043666754208970815,0.0168928163475357
-0.01485485518060159,0.054096864914754406,0.009805795343709178
-0.012489429536799435,0.05466093716677278,-0.0013675779655386577
-0.012402313586790115,0.05101204078528099,-0.010716400538512971
-0.015336725482484326,0.046625835238955915,-0.02351588773308322
-0.01685302413534373,0.04051303039886989,-0.03845853279926814
-0.01587539372849278,0.03280655073467642,-0.04951138180331327
-0.01485141820012359,0.02664358908077702,-0.05268330278340727
-0.015501762391068041,0.02460849100316409,-0.04542652823147364
-0.01688744123384822,0.019556648112484254,-0.03441533772274852
-0.017717193259159103,0.0012634224049179466,-0.033771415473893285
-0.01733997487463057,-0.02845730159606319,-0.04424160943017341
-0.01617870293557644,-0.055982272897381335,-0.04723035090137273
-0.015132570297282655,-0.07369871309492737,-0.03520186510286294
-0.015984422134351917,-0.0842352892505005,-0.029685181289096363
-0.018557082512415946,-0.08411184535361826,-0.03705118069774471
-0.02083463732560631,-0.07756007835268974,-0.04126131534576416
-0.021813697458128445,-0.07401609764201567,-0.03641676448751241
-0.021839443434146233,-0.07020073826424778,-0.03340847251820378
-0.02188198959629517,-0.06280971865635365,-0.033389325835742056
-0.021103063772898167,-0.05338686241884716,-0.03490670496830717
-0.020104896975681186,-0.04494525637710467,-0.03766118243220262
-0.019212802726542577,-0.038359870814019814,-0.04004949369118549
-0.018976954379468225,-0.029240010917419568,-0.03410212229937315
-0.020337705791462213,-0.013322308404895011,-0.01932224040501751
-0.02077733734040521,0.0050533722060208675,-0.008330866876349319
-0.020650866645155475,0.020607238184311427,-0.009679412869445514
-0.02051626142929308,0.032582920539425686,-0.018631651983014308
-0.020346406017779373,0.04001556953880936,-0.02880311876651831
-0.021493064195965417,0.04084090323885903,-0.0348552675859537
-0.02423769728920888,0.03626420220825821,-0.036721714423038065
-0.02425204547762405,0.0270589989668224,-0.03506238499539904
-0.021922276573604904,0.017664724509813823,-0.03456601916695945
-0.0216821954381885,0.012544288438220974,-0.0323527492582798
-0.024805429347907193,0.01249648630619049,-0.02813382525346242
-0.0303630658891052,0.012383009561744984,-0.025452145564486273
-0.033140961022581905,0.007022475074336398,-0.02907773341576103
-0.03314702189527452,-0.004655682005250128,-0.03740609827218577
-0.032887190172914416,-0.01947246528288815,-0.04510683720582165
-0.03146087328786962,-0.033250227716052905,-0.04844610157306306
-0.02954465708171483,-0.04202218769933097,-0.049251288146479055
-0.027860472982865758,-0.046397733967751265,-0.05155446706339717
-0.02553756712586619,-0.05060189505456947,-0.05733729267376475
-0.02253557977383025,-0.05567555490415543,-0.06258500798139721
-0.019984270693385042,-0.055918400903465226,-0.06495824345620349
-0.019332406736793928,-0.040960982005344704,-0.06317402585409582
-0.019861337932525203,-0.01946593874890823,-0.0564492802368477
-0.019652470655273646,-0.004987522970623104,-0.04844582508667372
-0.017872267562779598,0.001578728983986366,-0.0415001341025345
-0.017613338059163652,0.005690305442840327,-0.033294858440058306
-0.017486352589912713,0.010441004633321427,-0.021348712834878825
-0.017451269741286524,0.01569704727444332,-0.005528605015570065
-0.019021534171770327,0.019733655790332705,0.010801681128214113
-0.022305599486571737,0.020323970602476038,0.021140522221685387
-0.025122042643488385,0.016989548385026865,0.02283527464896906
-0.026897690986515954,0.011455652384029236,0.018300203009857796
-0.02987908010254614,0.003998437478003325,0.011777800864365418
-0.031658331863582134,-0.003897639999195235,0.009300521014665719
-0.03132383062620647,-0.007526120498368982,0.015193676517810673
-0.029240987714729272,-0.006428522283385973,0.022133644961286336
-0.027988313377136365,-0.005548334229388274,0.016965434042504057
-0.026500412786845118,-0.005009728738514241,0.003400001105546835
-0.024570979803684168,-0.0026464531401870772,-0.008319003427459393
-0.023389013222185895,-0.00014883831056522467,-0.016588226571911946
-0.023805992896086536,0.001553021775180241,-0.026130615879083052
-0.025596493287594058,0.0024530304472136777,-0.03636677502072416
-0.025096058379858732,0.004191615062154597,-0.03748855669982731
-0.020682738977484405,0.009921490345732309,-0.02567751107562799
-0.01627461642783601,0.018156339137931354,-0.012199797311041038
-0.01600325595063623,0.026259376681991853,-0.0028641443350352347
-0.020302906705182977,0.034171167499152943,0.00823946811578935
-0.023659835278522223,0.038112204492790624,0.02095760646625422
-0.022967813492869027,0.03342328272992745,0.020113095160922967
-0.022459234969574027,0.024112632672768086,0.007453689704561839
-0.021997861040290445,0.016934187442529947,-0.0017030222352332203
-0.02031327130680438,0.013547452908824198,-0.006080921139073325
-0.019451885236776434,0.010845295037142932,-0.014895069398335181
-0.021080109945614822,0.004783378244610503,-0.027673788281390443
-0.02275897168146912,-0.0024659170776430983,-0.039083352021407336
-0.023483613404096104,-0.009689028047432657,-0.049424033932155
-0.025179493604809977,-0.01862217868620064,-0.058781639381777495
-0.025843952244031243,-0.026106905352207832,-0.06453910464188084
-0.025308754629804753,-0.024986095013446175,-0.06317489896900952
-0.025913846911862493,-0.014210542758519296,-0.05561882790061645
-0.02763543488981668,-0.003414407956370269,-0.04504086609813385
-0.026373701984994113,0.0014672442603114177,-0.03678533903439529
-0.022504960725200363,0.005070281986263581,-0.03236180418753065
-0.02306686837982852,0.010746417501650285,-0.02823630529746879
-0.026465806513442658,0.015579858882119879,-0.021741032469435595
-0.028858661607955582,0.012952920769748744,-0.016178433725144714
-0.028875221687485464,0.008326929673785344,-0.01258204247278627
-0.027713371309801005,0.0060800512073910795,-0.011097016795247328
-0.02656881588336546,0.005336713002179749,-0.007325943442992866
-0.025648487280705012,0.005640649305860279,-0.00048537754082644824
-0.025118773919530213,0.004447620995051693,0.002134512897100649
-0.02500023038010113,-0.0009379315883961681,-0.0014607862794946413
-0.023879611035226844,-0.008499004252371378,-0.003095538431807654
-0.02024855166382622,-0.013586470231530257,-0.003182899035891751
-0.017633941752137616,-0.018632317733136006,-0.011887738764926326
-0.018369779354543425,-0.024028959160204977,-0.026483625333639793
-0.019553099264157936,-0.023852377125876956,-0.03728584852069616
-0.020187246263958514,-0.017625718101044185,-0.039226844819495454
-0.021087555069243535,-0.012001006325590424,-0.037840269214939326
-0.020813704395550303,-0.009723029506858438,-0.03618186747189611
-0.019463239368633367,-0.009153042810794432,-0.03507773726596497
-0.0190505052160006,-0.00656082602290553,-0.03260059020249173
-0.019509438061504625,-0.0014114142459220602,-0.02916335142799653
-0.020632978703361005,0.0026938721475744387,-0.02864730413421057
-0.022521408027387224,0.0015320074453484267,-0.033492913644295186
-0.022716267267242074,-0.004057860223838361,-0.04190527761238627
-0.021476702386280522,-0.009682713425718248,-0.04793767584487796
-0.021145906430319883,-0.013130625120538753,-0.046585719246650115
-0.02321375723113306,-0.015084910046425648,-0.04172289845882915
-0.024462739020236768,-0.013908113942306954,-0.039376587665174156
-0.02414646587567404,-0.010382343134551775,-0.03510383976390585
-0.024082468371489085,-0.006777930593671044,-0.029900058507337235
-0.023898315703263506,-0.006217131158336997,-0.027025036615668796
-0.022037849703337997,-0.009447952834307216,-0.025747058316483162
-0.020651275917771272,-0.015319894373533316,-0.025503877623123117
-0.019989605789305642,-0.02289376971020829,-0.02865497845050413
-0.019054723452427424,-0.02889110146497842,-0.0369462177332025
-0.017969810869544744,-0.025431709218537435,-0.04199067552690394
-0.017888087313622236,-0.01409669675922487,-0.03846708932542242
-0.020235125703038648,-0.004697457825386664,-0.02743112600001041
-0.023597031031385995,-0.0007396754426736152,-0.01389045974065084
-0.025339420972159132,0.0018480391190678347,-0.004883464498561807
-0.024075625333352946,0.006401392965926789,-0.0031987979127734434
-0.025372375603183173,0.008899955901142675,-0.0062070880630926695
-0.02931786366389133,0.007288578672159929,-0.010281328286509961
-0.03175062010996044,0.004720074684883002,-0.011137755791423842
-0.02982690421049483,0.0023393665742332814,-0.012907084965263493
-0.02649704947543796,-0.00292076583718881,-0.02031532858381979
-0.023979973775567487,-0.010785723134176806,-0.03268042564741336
-0.021102447135490365,-0.0157452068378916,-0.04459948468138464
-0.019257335225120187,-0.014677218132419512,-0.05240395694272593
-0.018586080841487274,-0.010610109711706173,-0.05402454553404823
-0.018880404240917414,-0.00712162682248163,-0.04841755799134262
-0.019257115127402358,-0.002074863004963845,-0.03676101187011227
-0.01866682396212127,0.004286745024728589,-0.021216952518443577
-0.019623710613814183,0.009065636731975246,-0.005281652192934416
-0.019300036001368426,0.008783524208411109,0.007467386694770539
-0.015671001165173948,0.006432008376577869,0.011687401638482697
-0.012268120372027624,0.006213530014065327,0.007514348908443935
-0.013463802133628633,0.008337101462529972,0.00045323227482185757
-0.017249532902496867,0.011109610568382777,-0.005520098966371734
-0.01968592914636247,0.00999425810732646,-0.009842178769758902
-0.019578841602196917,0.006395142463588854,-0.012037556189170573
-0.020006909835501574,0.008051696568145417,-0.007903828191047069
-0.02371814480284229,0.017850094081950374,0.004811717644770397
-0.02760289135039784,0.028618607757380232,0.021942703824606724
-0.028950596970389597,0.029577695386251435,0.02969829620269593
-0.02732286520767957,0.018534714399720542,0.01643391624384094
-0.023687180146225728,0.0022088490823080065,-0.009501524800725747
-0.021077074052300304,-0.009075487469090149,-0.03022487544512842
-0.020421704903128557,-0.01134309968620073,-0.036794615880353376
-0.021486461264430545,-0.009527404472464696,-0.03598694092943333
-0.023885182599769905,-0.007836376425984781,-0.0366640706488397
-0.02603180291771423,-0.006195110927365022,-0.04101365993847139
-0.02813139508361928,-0.005340241841622628,-0.04389378227642737
-0.028946418751729652,-0.009079427400138229,-0.043123724026372656
-0.027859501642524265,-0.017016507626976818,-0.04265531970304437
-0.025674698918010108,-0.02365040563745424,-0.041250263166148216
-0.02514229890948627,-0.027831058105221018,-0.03821080463239923
-0.02557745210651774,-0.0351011949533131,-0.04288469790481031
-0.024204842702602036,-0.04597506995196454,-0.05708267417503521
-0.02302156644873321,-0.05361523653846234,-0.06763582496205345
-0.02512389255571179,-0.0531822006450966,-0.06708720320602879
-0.02833222970366478,-0.04661561251850799,-0.060709604440489784
-0.03132281199214049,-0.03623883458203636,-0.055098262237152085
-0.03369967816979624,-0.02591397424112074,-0.048881945986067876
-0.03486508649075404,-0.018818978787749074,-0.04007075767731294
-0.03358535104780458,-0.015702358723501675,-0.03153647048748098
-0.031195624615065753,-0.015134492059587501,-0.02560628308856394
-0.02894094359362498,-0.0114381928142393,-0.02022007538471371
-0.02788966776279267,-0.0032170905797102023,-0.017315398508799262
-0.026982104827766307,0.0034756023978843587,-0.01978781983780209
-0.026043464458780363,0.004991479727323167,-0.02318624683539383
-0.026553403586149216,0.005469145435199607,-0.022279831682681106
-0.026078630980919115,0.006927073172846576,-0.018101902242051437
-0.02433302506688051,0.008564275958633516,-0.014618178283853922
-0.02150765612896066,0.007200536856544204,-0.015541081666015089
-0.0194869044207735,0.0046773566282354295,-0.01884209268609993
-0.019869074094458483,0.004263875325705158,-0.014707427908433601
-0.020635383407352492,0.009156361556961201,-0.00375747572434193
-0.02059355756500736,0.017751293853507377,0.0024390776616201038
-0.020616425899788737,0.026506295398576185,0.0018775336911858176
-0.02108288936142344,0.03314002970000729,-0.0006176899773890909
-0.022099900888861157,0.036608835216611624,-0.0026501970751269255
-0.024341630705748685,0.03653647581813857,-0.00473896716357558
-0.025665785869932733,0.03187809488736093,-0.00901957719179336
-0.024631091946503147,0.024239803678938188,-0.015819003237993456
-0.022543101295013912,0.017321915947832167,-0.021897330952924676
-0.019753944798139855,0.012098034858354367,-0.02200411108788103
-0.0189850470633246,0.008270913895103149,-0.01858597170212306
-0.019797251297859475,0.00427825580118224,-0.017258331354241818
-0.018886401448980905,-0.002039219452854013,-0.020674038751167245
-0.014849254512228072,-0.011703353266057093,-0.024709474018891342
-0.013466932614392135,-0.02352756382606458,-0.02546817995607853
-0.017326899978797883,-0.033772641472751275,-0.025669007300166413
-0.021906138499616645,-0.03760357867577113,-0.02633670374052599
-0.024050925276242197,-0.03427441697567701,-0.027754604161600582
-0.023168051484390162,-0.025930727133527398,-0.025642646505730227
-0.021913961973041296,-0.015781026377226226,-0.017162599760922603
-0.02268101707159076,-0.0038132607187435497,-0.007247371286212001
-0.02386434789514169,0.00994858146441402,-0.002903484073613072
-0.024455130187561736,0.01843904647103045,-0.008103504114842508
-0.026358096874901094,0.01863623947429005,-0.019265988157712854
-0.027937741833738983,0.01528922985016834,-0.02485553159203846
-0.0289465970126912,0.012937769497511908,-0.025050772819668055
-0.02813789433275815,0.010601771464280318,-0.026696045097196475
-0.027119775040773675,0.007953360182000324,-0.02893981582019478
-0.02558496817073319,0.004289786375011317,-0.03410061981412582
-0.02252573540317826,0.00020918243137657555,-0.040652383177075535
-0.019251070625614375,-0.0023620541469426826,-0.04192431515548378
-0.01618393616809044,-0.0032541038308409043,-0.03568491592886858
-0.013146188393875491,-0.006641314939770382,-0.02916896846727468
-0.010648927855072543,-0.012940083252033219,-0.026152783902944066
-0.009380056326335762,-0.018827668100129813,-0.025962119252653793
-0.010130890586879104,-0.025017710868269205,-0.028534746888908558
-0.011522161003085785,-0.029552027626778,-0.03323318378534168
-0.012680680811172351,-0.026769719625008292,-0.03389137054909952
-0.015258723578881472,-0.01899801463878248,-0.02891096482926514
-0.018397720850771293,-0.012874917047156487,-0.026650117433746345
-0.020819321434828453,-0.006646069778071251,-0.02851494173228275
-0.022776164769311436,0.0031618051252735313,-0.027804479032056406
-0.02393091381236445,0.012831205822294578,-0.020417306586750783
-0.024989694793475792,0.01719594729365781,-0.015596715456922539
-0.02585883703432046,0.014693250705022365,-0.016737607438699342
-0.025498309696558863,0.010792338798637502,-0.01645414886297658
-0.023874676116975024,0.008915864782466087,-0.013317838238435797
-0.02411676905467175,0.007904312951723114,-0.009506592505204026
-0.026755576982395723,0.008437011274509132,-0.007739441571175121
-0.02797693377942778,0.011654401532723568,-0.0066131351559306495
-0.027353702535037883,0.015106479622772895,-0.0055510167840111535
-0.028046133593306877,0.011051206456613727,-0.0028586794087459566
-0.027922780645894818,0.0029693626402149675,-0.0013437936559057562
-0.025915334845194593,-0.006114943516877247,-0.007000498499110108
-0.023392962248180993,-0.01593871093064081,-0.022093588995630853
-0.019796363631030545,-0.02730104824877344,-0.03946683136746287
-0.015742145478725433,-0.039756487240083516,-0.05293180583976209
-0.012736177268379834,-0.05013079135096632,-0.06410645437426865
-0.012207132385810837,-0.05057703674538061,-0.07276089309016243
-0.013431477782432921,-0.03869293141178787,-0.07357543654507026
-0.014916510735929478,-0.02295373815286439,-0.0652514718240127
-0.01691690158622805,-0.012988162779947743,-0.05563937884289771
-0.019662955310195684,-0.010093695891555399,-0.04869812983088195
-0.021273232050589286,-0.009899753422359936,-0.0436396621807944
-0.021186762751312926,-0.00977027684712084,-0.04709661516244523
-0.022585054466617294,-0.00544093745702412,-0.06010558718116954
-0.024758164727245457,0.0021893508801440476,-0.07133032340789214
-0.025184566766256467,0.009084250450541731,-0.06657429912593216
-0.025616020138841122,0.010969092727464158,-0.04432249261299148
-0.026865931431530043,0.007898629519331735,-0.020081843103980646
-0.028158445275039412,0.001985201606657938,-0.007497064416384092
-0.030529317882610485,-0.00550411732547218,-0.006345826022879919
-0.032771731639513746,-0.00925750191527186,-0.007562070550193312
-0.031996412872103974,-0.00321302650263533,0.0006898695801282884
-0.029038254069746472,0.010170404493692331,0.017988459148909897
-0.02637535726535134,0.020113628124818206,0.03127368472632952
-0.02322150430700276,0.021321515305317007,0.032126332371262833
-0.0216565968003124,0.017969015971175395,0.030550072551704943
-0.02195810702687595,0.013220662367530167,0.031116644095163792
-0.021559999368037097,0.0074361519182275515,0.028895510695292614
-0.020902340111206286,0.0005927146844442177,0.02061051782220602
-0.020700230379588902,-0.005441758730739821,0.00803146122052567
-0.02148885505448561,-0.01139336745836772,-0.004090120000910247
-0.023406049876939505,-0.01740846346365288,-0.01320445335295517
-0.024507291527697816,-0.022735412130714394,-0.02094287810905371
-0.02319216582691297,-0.0248133328568656,-0.02546443101891782
-0.021481399016920477,-0.019991193767054938,-0.020447456336114556
-0.02301099812029861,-0.007834638381609693,-0.007208758688648231
-0.02639119338709861,0.005597444669547258,0.005069578037364408
-0.029409393391688354,0.01384549068461638,0.006617647159146145
-0.030031573260203004,0.015094049558683764,-0.001195753384308773
-0.02950111957034096,0.014499608369078487,-0.004900028670817846
-0.028238007871550508,0.01616640656720847,-0.0066495063038019
-0.027286672775517218,0.014661928616988007,-0.017216252672369592
-0.02786498225759715,0.010619041859172285,-0.033525400795042515
-0.028034330171067268,0.005719795808545314,-0.043687094148481265
-0.027086296540801413,0.0024683645278855693,-0.04473410808714107
-0.026206324037048034,0.0002141001971267542,-0.0396775285480544
-0.024194034267566167,-0.0010296571417711675,-0.031926450901664793
-0.021626890884363092,-0.00043364883595131687,-0.028804224712075666
-0.020223078536218964,0.0008200945558201056,-0.03487272988422774
-0.019194616470485926,0.00014013157567660528,-0.04706224353867583
-0.016685715308994986,-0.003451339580351487,-0.056276461691595614
-0.01503830117144389,-0.008674470336700324,-0.05802791565656662
-0.014938760614313651,-0.011418957001296803,-0.05590073487837799
-0.016554276953684166,-0.008727743988856673,-0.05230838360148482
-0.018208627807325684,-0.006450236924138153,-0.04353849362814799
-0.0199295645870734,-0.005539136054721894,-0.03222656960133463
-0.021083124011056498,-0.004220233222440584,-0.023906528440420516
-0.021189547624089755,-0.004351908955868566,-0.020382794900797307
-0.021282179659465328,-0.00698889061823138,-0.025660800019977614
-0.022775178877054714,-0.011654250556603074,-0.03314277273602784
-0.025324956368422136,-0.017007399947033264,-0.030464505471172743
-0.027909904019907117,-0.023702687030890957,-0.02434160342090763
-0.028955662855878472,-0.032218373235082254,-0.029931516110082157
-0.028215546990395524,-0.038773567212047055,-0.04480600182432681
-0.0268446710833814,-0.03622210715548135,-0.05452712866826914
-0.026037323550553992,-0.023497394067817368,-0.05136767140356824
-0.024584562197560444,-0.004902013188257115,-0.04060197534272447
-0.021784366253996268,0.009109227903536521,-0.029950839234516025
-0.019775925466092303,0.013464129551721271,-0.02299373591085896
-0.01678394983173348,0.01302064356423216,-0.018675453247851692
-0.011374804671504535,0.014141381143417675,-0.01249530123459408
-0.007948076927277725,0.016360847439500503,-0.006329094958346104
-0.00868465122039197,0.017589321942068636,-0.005095918822917156
-0.010826760444615502,0.01978857471840456,-0.0068205026764189824
-0.011271617040620185,0.0215014679270098,-0.008669997441757005
-0.011307018212391995,0.021003808797104284,-0.0092316167865647
-0.012980772226001136,0.017386300896760076,-0.009231805051967967
-0.0164159919222584,0.009755863175087143,-0.009231607691617683
-0.02160856092814356,0.0001802635551939602,-0.011089165127486922
-0.02433363079035189,-0.009038369171321392,-0.013593050425697584
-0.02580376894911751,-0.014648955584561918,-0.014762461432837881
-0.02730500273173675,-0.01777036231942475,-0.017447337086196057
-0.026360945412307046,-0.021614980141748674,-0.02298160870850552
-0.02355770266149193,-0.02603598295536358,-0.03138567990390584
-0.02255523759231437,-0.030213737773010507,-0.0397790499846451
-0.02295510239491705,-0.03394523082533851,-0.04477161928662099
-0.024372586267418228,-0.032318494049832225,-0.045299118937691674
-0.02692902307899203,-0.022564678147318773,-0.042268460674677044
-0.02981705983984284,-0.010941047548840288,-0.03649520658655092
-0.03170744821545668,-0.0040691529648029245,-0.02994401984324213
-0.032061409001471475,-0.001771551637830271,-0.027272435545455664
-0.03146263770759106,-0.0007564922839264909,-0.028213404220878147
-0.03187081529176794,0.0010907399428106146,-0.028047876185155474
-0.032419389754068106,0.003951720827899408,-0.02459635834384244
-0.03310119791422039,0.006382713763741776,-0.022026531951269135
-0.03321741314721294,0.008206545317079872,-0.01856370181485545
-0.0320496728818398,0.00972835005086381,-0.012686597074207384
-0.030774670449318364,0.009804106412047986,-0.010460837074788287
-0.03034908149857074,0.007388529866148019,-0.013881893210054841
-0.03095070132985711,0.003847116659017047,-0.017571601347299293
-0.0310165123664774,0.0022454526060755597,-0.02119291093549691
-0.02966341889987234,0.0018777720924845198,-0.026894249458564445
-0.026684019758249633,0.0013135964991306537,-0.03332479900564067
-0.02385639527346939,0.003136314489893266,-0.03638847920228727
-0.02333006341359578,0.00596559311816236,-0.0344766303896904
-0.025498911782051437,0.009022677659231704,-0.027878502805833705
-0.027025456802221015,0.01324036293226527,-0.01965037517948076
-0.026421441361890174,0.012772094123647548,-0.01211030667036539
-0.025206538339261897,0.010933172234217636,-0.004890738637186587
-0.025637535145506263,0.014286464647739194,0.002460926452840795
-0.026491725293453783,0.019832466932712123,0.010003567695093807
-0.025458724849158898,0.023916001737234183,0.01611851439520251
-0.023988262910279445,0.024125256459228694,0.01989763040910475
-0.02289586336701177,0.01703325870039407,0.016657111700624228
-0.022592548702959903,0.0018591663319966756,0.001730864596538595
-0.0228809512918815,-0.014003469914314337,-0.018203963918494992
-0.023987980966921896,-0.022119314962765202,-0.032273372198687866
-0.025019742679432966,-0.02195725573983509,-0.03781516716117039
-0.02413886977592483,-0.01794525633158628,-0.039029928302625194
-0.023192249500425532,-0.013089400454191491,-0.04136647476116195
-0.0231096419156529,-0.012024029274471104,-0.04608225935953669
-0.02113604568876326,-0.0146221682371106,-0.04331201853347011
-0.015787914890097454,-0.013469452824210748,-0.03170827403664589
-0.009972801308322232,-0.004285614977561636,-0.02120114368153736
-0.008335703569173347,0.005179208983463468,-0.015611831258866005
-0.008900695320335217,0.011282345440122299,-0.009664603567216545
-0.01076731405191822,0.01570451604493428,-0.0011623642421909608
-0.01411036282661371,0.015256292499543633,0.0021063378881081007
-0.014664229638583492,0.00579475181439193,-0.004379816346045118
-0.010214369467576034,-0.008353809789696243,-0.013431033039523754
-0.008944283763412386,-0.016733351003495045,-0.01577756120241247
-0.013485331692209002,-0.01994399463001173,-0.017059663150575943
-0.017834916434367187,-0.024040627977228723,-0.026269750378560275
-0.021309408111847006,-0.031022471375763416,-0.038420475902967155
-0.0215843174373731,-0.04122899190406315,-0.053907580877421424
-0.020444802430574782,-0.049314196076011285,-0.06798649701522663
-0.019123348465655,-0.050613045459613204,-0.06884446338517591
-0.019251387129770592,-0.04652002462535165,-0.05732604404329322
-0.02294444857398048,-0.038964994018897414,-0.0459169277746696
-0.027422996936365962,-0.031537219911115244,-0.04330874435254373
-0.029296188586158678,-0.026559122488833964,-0.04370390888652764
-0.027983071049675345,-0.021460400603245944,-0.03845812534564175
-0.025911283955792896,-0.012011574654025026,-0.026597939722705632
-0.025836277927737683,0.0006701843631162774,-0.014518761418003123
-0.025749788619577885,0.012305839845794253,-0.01009854986477876
-0.02448580380587373,0.0205340711545432,-0.01286679344048025
-0.023374474039883353,0.02485445475031156,-0.011328486834827345
-0.02191348721680697,0.02884720015572384,-0.005455687187350122
-0.020149347619735636,0.03265694613219239,-0.0032194448067457415
-0.021998024749336764,0.033212374546565115,-0.007257654033310246
-0.025080413251998834,0.030593451811000705,-0.012037826309097
