ch_0,ch_1,ch_2
-0.022960995920584537,0.0010739903473222512,-0.026433301172801293
-0.023153223082772456,0.00031548646006740455,-0.026544426873442717
-0.02181104355258867,-0.0007091961151672876,-0.028056319933966734
-0.021198144168010913,-0.0009434239700567559,-0.027863154173246585
-0.021323177861631848,-0.00014780654566948215,-0.02715698428801261
-0.021174346329644322,-0.0003672121522413363,-0.026340554541093297
-0.021897791157243773,-0.0015551233900623629,-0.02544150447647553
-0.023594795493409038,-0.001509822027401242,-0.023732922272756696
-0.02432011388009414,-0.0001618246869838913,-0.021904692403040826
-0.023736873117741197,0.00042059383531523054,-0.0196441869775299
-0.024463972295052372,0.0011182069101778325,-0.019942099243053235
-0.024962462703115307,0.0014294029142547515,-0.0217950528167421
-0.024901461074477993,4.955293775310565e-05,-0.02354809839744121
-0.024937166017480195,-0.0015040330936244573,-0.024886488972697407
-0.023638787752133794,-0.0014615442296417314,-0.025515408196952194
-0.02101984318869654,-0.0015716555026301648,-0.024606903025414795
-0.019766455807257444,-0.003456139666013769,-0.024207736714743078
-0.01998801963054575,-0.0038343846426869277,-0.02493185456842184
-0.020405999748618342,-0.0031807160212338204,-0.02478318492649123
-0.022040689145796932,-0.0034388872336421628,-0.02282569585076999
-0.02357075209147297,-0.0032262830700346967,-0.020779945771209896
-0.02366287480981555,-0.002842671165126376,-0.019979654098278843
-0.02402968493697699,-0.0028765534807462245,-0.0214048213820206
-0.02438402771076653,-0.003133821792289382,-0.02286414019181393
-0.024825083528412506,-0.003869365173159167,-0.024400820620940067
-0.02504388066881802,-0.003604077392083127,-0.02625102388265077
-0.024405899239354767,-0.002845740027623833,-0.02693568603717722
-0.025020044631673954,-0.00280529434348864,-0.025563302187947556
-0.025079634724534117,-0.004411887857713737,-0.023636812329641543
-0.023014526959741488,-0.005629164206766291,-0.02270587719976902
-0.021880483473069035,-0.00426715951107326,-0.02192652209487278
-0.022187985450727865,-0.00276994410342013,-0.021411820853245445
-0.02205639611929655,-0.0037535285173362354,-0.02294376099598594
-0.022874079149914905,-0.005062466698291246,-0.025423993065487593
-0.023970040274434723,-0.005213070835452527,-0.025675706638139673
-0.024666056560818106,-0.004178259132459061,-0.0240083481912734
-0.024607294108136557,-0.003848810138151748,-0.023748871171846986
-0.023934951968840323,-0.003469693865554291,-0.023269600205821916
-0.02375984149693977,-0.002483717707946198,-0.02360860707995016
-0.02371678056078963,-0.0031767403925186954,-0.023569698896608315
-0.023103271814761683,-0.005554136350838235,-0.023515269276686013
-0.023309268726734444,-0.006217427653609775,-0.022944097509025596
-0.02423182741040364,-0.005138623691891553,-0.021826428564963862
-0.024455941456835717,-0.004524507403402822,-0.021752579414169304
-0.024345154088223353,-0.005362756837712368,-0.022091908249421977
-0.025111243303399533,-0.005571425845118938,-0.022300326236290857
-0.02478488204360474,-0.004262493348505814,-0.02344933818676509
-0.024043600205914117,-0.0032451221159135457,-0.022600885131396353
-0.023008215066511184,-0.0028612309961317806,-0.021634366930811666
-0.02295776539540384,-0.0025918275241565425,-0.022797470592195168
-0.022574522517970763,-0.0013732203569816193,-0.02434308953525033
-0.021939164071227424,-0.000792500884472247,-0.024190931071643718
-0.02168408354918938,-0.0024458320240228204,-0.02268241223646328
-0.020748269889736548,-0.004099682428204687,-0.021386525986599736
-0.019893448552465998,-0.004539683231996605,-0.019997039998997934
-0.02082785613310989,-0.00452419862995157,-0.020694280465249904
-0.021863823349121958,-0.003747166829271009,-0.02292485260113608
-0.02041522748186253,-0.0027346814022166654,-0.02440884600218851
-0.018781207472784445,-0.0037637266814272152,-0.023419746867148206
-0.017770515114534646,-0.005281437552184798,-0.022326832549879327
-0.01822819103836082,-0.005546900410990929,-0.024073115127976052
-0.019092920410912484,-0.004082439318153774,-0.02532546568545513
-0.018247728803544305,-0.004216238721710397,-0.02254158243886195
-0.01659085501160007,-0.004603564775607083,-0.01954499020939693
-0.01685979987087194,-0.0034950780900544487,-0.019111761503154412
-0.019440944015514106,-0.0017588673699719948,-0.021584699425147846
-0.02255215440527536,-0.001957873564606416,-0.021812675186083652
-0.02412830144749023,-0.0035311575175001053,-0.020076005966984667
-0.024026243409025483,-0.004775403340318007,-0.019359007637831382
-0.023285378119908273,-0.004569041720969835,-0.020466502974159084
-0.023425898689310998,-0.0030402040920307627,-0.019918988982681185
-0.023893204343039542,-0.0015227992662403267,-0.018134214769816026
-0.023491704268963076,-0.002996859166159993,-0.01917370900628157
-0.023035448975861073,-0.004382823135529179,-0.02164708166674245
-0.022386020646081306,-0.002519101599318674,-0.023218111891765147
-0.022980513676884584,-0.0021758339698862983,-0.025015675419126637
-0.023678761863266118,-0.004893770892522298,-0.02428523475828115
-0.02363001294725109,-0.007602975983900251,-0.02387057975283824
-0.023697026335867122,-0.00867402741278056,-0.025520013878121972
-0.02457152913848404,-0.007196895239758305,-0.02706644772842992
-0.024756795028224587,-0.005170108124730177,-0.02597835373308044
-0.023619490093551576,-0.00497621977046947,-0.025794583052629605
-0.023088337911758572,-0.0062334456742974,-0.027475076421978883
-0.023577907995786518,-0.006880999535496812,-0.028835902412538417
-0.02512934588594362,-0.00643687735646381,-0.028588183340616524
-0.025918414394254796,-0.0047228049879777245,-0.027378990125725977
-0.024256736651295796,-0.0025595486476959195,-0.02592839337012265
-0.02158944153052289,-0.0027734224659070605,-0.02538598891987931
-0.021647068933816627,-0.00301950103676063,-0.025341934815514833
-0.02339149432373233,-0.0018714741827352555,-0.0243950926233083
-0.02535137718950864,-0.0028491551802289905,-0.025779876523301937
-0.024781915271887556,-0.005470370524562895,-0.026944922865368426
-0.021991130779497325,-0.004387488388601923,-0.027758103897213005
-0.021304307665559463,-0.0014557259646608145,-0.02575679354777094
-0.022270403860602528,-0.0005435686034616083,-0.02233666236861609
-0.021925068722339347,-0.0013182195743866032,-0.021481757357832976
-0.020323601347627118,-0.00333599018631503,-0.022552454538526945
-0.019837827494484372,-0.006108118668635143,-0.02275364749948494
-0.020808822227991186,-0.00658434146316722,-0.022597308998228982
-0.02204976772191003,-0.004161722699791426,-0.0226720094360644
-0.02347508052480407,-0.0023854809114709496,-0.022647325749858283
-0.026135163352591917,-0.0017140214367827866,-0.02421972203592304
-0.027038317057304084,-0.001513252414042654,-0.024833212592056952
-0.027021582354791462,-0.0025976858069043374,-0.02610694536997471
-0.026933041226584464,-0.003744818286577356,-0.02710954868234694
-0.02503957148292102,-0.003987665877502877,-0.02647431210789364
-0.02401395067863632,-0.0033691806038405048,-0.02507973840693012
-0.023619515559403226,-0.0014379779713635799,-0.0229959114221856
-0.02196770947193727,-2.2534431209919603e-05,-0.022629443265032023
-0.02011406104429625,-0.0006958054541428282,-0.024887529434636235
-0.01974856058950536,-0.0023064551442075754,-0.025415320124011487
-0.020686775314970873,-0.002851109456969425,-0.02378987119300291
-0.02178085378545802,-0.0018651722939466708,-0.022163932953844778
-0.021704809114453383,-0.0015056934898893815,-0.022235035430639982
-0.02077114004350733,-0.002109929937432753,-0.022319240088108927
-0.019344428437761962,-0.002340221499252948,-0.020397003027028404
-0.019335559045430273,-0.002532849748604349,-0.019653578419820406
-0.020112007405259646,-0.003072324034292251,-0.02039102400885895
-0.021354118871386163,-0.005050925210525747,-0.021343532353057526
-0.021391315385699272,-0.005527840130525874,-0.023432592570316046
-0.021100624508108012,-0.004088999958185013,-0.0250009852607036
-0.021382698832894675,-0.0025071201434911927,-0.02595912155811675
-0.02231646067230031,-0.0016738849808461964,-0.026024114049505442
-0.022839038138044998,-0.0024940952698671026,-0.02457288974255789
-0.023001806766842492,-0.0035503742310538655,-0.024080494767986238
-0.022988917407928966,-0.0038585849324590527,-0.02575766120571643
-0.02313175718882121,-0.003472432354101329,-0.026867815904552117
-0.025293165890616365,-0.0032115087833517464,-0.025890634788083844
-0.027241901989327744,-0.004429959062690614,-0.02412322282907553
-0.026683495889301412,-0.005871305802429561,-0.024006498279049993
-0.025200462914654054,-0.00688110094415606,-0.024388436941080727
-0.025383533284184523,-0.006486295660579344,-0.022610480300500058
-0.02531967402319424,-0.003794656777245109,-0.02060335100395605
-0.02320363637409173,-0.0023470804535463685,-0.02274271537316963
-0.02095618037856184,-0.0016716612663003616,-0.025710000045364723
-0.020597264665411785,0.0002402135805823491,-0.02502064853615593
-0.02133717316610273,-0.00021347504741697776,-0.021073257812531665
-0.021643378204316832,-0.002797197794279782,-0.01689029704721179
-0.02155023867089767,-0.0038069658785389038,-0.01554737173137255
-0.022094509404269047,-0.0032388097679358907,-0.017597565602045506
-0.023424507162417285,-0.003158445451845182,-0.021290965378284454
-0.024402270355494693,-0.004674495357903652,-0.021850268240086734
-0.02628670154081192,-0.004551531674223952,-0.022292208086582832
-0.027117021090816706,-0.0035466323424770962,-0.024070448489510454
-0.025284363800892606,-0.00427093527832767,-0.025612769604776986
-0.024600705728516914,-0.004741252723761136,-0.025067569367820397
-0.02435017449897714,-0.004070494014740689,-0.024363749616895802
-0.024549044610466808,-0.003187931042702985,-0.02356985532969702
-0.02549725650169421,-0.002051161800409318,-0.02203543044743128
-0.026575062292977236,-0.0020827462776651373,-0.021402869606390595
-0.02592097189335618,-0.0032835177989909425,-0.02164010402339045
-0.023418289856635965,-0.003603195636969758,-0.021349205781007186
-0.02214869346062187,-0.0018312302927370183,-0.022665333744953386
-0.022237703888094984,-0.00025777310952435073,-0.025427740183658898
-0.023047219656291418,-0.001997941581066698,-0.026006307962234132
-0.023154370865086094,-0.004828731107409112,-0.02416957067907788
-0.023339134713751264,-0.0055439313655369915,-0.022480733605334535
-0.02315583151357714,-0.004073020136274863,-0.02440351454424672
-0.02322004729649052,-0.0025725189516379032,-0.025146235202555545
-0.023564933144371025,-0.00321870788866363,-0.025164976250380278
-0.023792510546627454,-0.004831455498788273,-0.025870691388263367
-0.023411970687448047,-0.005658821010001702,-0.026235717086819932
-0.023300328393816017,-0.005432612852018792,-0.025712626666063443
-0.02374534415139351,-0.004517747584031895,-0.02587241215223912
-0.024536060664104298,-0.004298356998333475,-0.02515667256375309
-0.025336723410873674,-0.005364120170270326,-0.021446092432597652
-0.023911159587441944,-0.0057558650041755755,-0.01921980219776742
-0.02250179386464879,-0.0036585120142262895,-0.020202120140311308
-0.022927675672690384,-0.002593578528831131,-0.02180950468755327
-0.023793001673766412,-0.0031606900847691577,-0.023286185751203448
-0.024296876290463842,-0.0038612456592090894,-0.02306594979017973
-0.023047936338116415,-0.0037483800952031743,-0.020436493286979385
-0.023840910216677003,-0.0025477982035226887,-0.01893337866931688
-0.025425657440791838,-0.0014354036466102116,-0.021179610484978184
-0.025296445528510958,-0.0022910635379957967,-0.0241027901211055
-0.024433973521809094,-0.002179170905947103,-0.02433635017951019
-0.024181186745408922,-0.0018381672362011159,-0.022841601094114594
-0.02353416675759945,-0.0034084407616319368,-0.02270209188282024
-0.022219483071239665,-0.004847571744903689,-0.023409993445966393
-0.020941655748174526,-0.0037421582419483457,-0.024497207050444558
-0.020388830307638273,-0.0018852967968996381,-0.026006751795648597
-0.020305620637373067,-0.0019377127955522155,-0.025933612050721422
-0.02062342900899239,-0.0026348736810177797,-0.025064999135793187
-0.02164550642191898,-0.0028535221190395532,-0.023679182049818337
-0.021300471416907385,-0.004035866822960088,-0.02216846951341722
-0.02119687087542843,-0.004002404239145108,-0.020397952539497055
-0.023200362193165347,-0.002555862010922283,-0.021318062863429077
-0.026067151338793337,-0.0012169243746029679,-0.024114140614983626
-0.026536152290645987,-0.0006256139499782876,-0.02695625698834192
-0.02508033867343329,-0.0011378135695849778,-0.027821282856166363
-0.02434496855130419,-0.001335594674856111,-0.02768757076410111
-0.02284546644659713,-0.0010775263490359066,-0.027182621124666184
-0.020933741325279698,-0.001451100843041786,-0.025448287487961352
-0.021337713405955583,-0.0027955645691690734,-0.024729200958972797
-0.02329594462935347,-0.004279092991055222,-0.025479448595433496
-0.023365857487078756,-0.004832240847463254,-0.02628945185279008
-0.02236784166598227,-0.0037387769680208294,-0.024086761186481453
-0.023035721824271604,-0.0037212507777439896,-0.02186335768783465
-0.024416445739916526,-0.0047540065679640975,-0.02283024150528945
-0.025034367354237475,-0.006633368684560992,-0.024533606847398914
-0.02531305653974414,-0.006923949513293337,-0.02533293627493549
-0.025507153623038903,-0.006208514150785049,-0.025134604584309272
-0.02416311326669529,-0.005271263489703415,-0.02439014133415185
-0.022171430828166194,-0.0050244816520716995,-0.02433613917673938
-0.021379380996222608,-0.00576457796341856,-0.024662018404342234
-0.02072238021355588,-0.005470092673931504,-0.023633114324184135
-0.02012959521380253,-0.0030380576845345786,-0.02345237953704782
-0.020748457245645113,-0.0021749926872871583,-0.024201357518904842
-0.021843472495675087,-0.0044674097807728685,-0.022046806407161057
-0.021673688024748117,-0.006106577075115638,-0.02103866427205503
-0.021656356693711132,-0.004877080755250063,-0.02231090547866188
-0.02075724296446424,-0.003161833092235611,-0.023055117708281614
-0.018045722754322924,-0.0028076060516468715,-0.023579901608172804
-0.019119108401355334,-0.0024778780698397895,-0.02299141306139063
-0.021738354917033575,-0.0022043855096853804,-0.02211384526162874
-0.022192751202965155,-0.0017822022755353828,-0.021603704226436093
-0.02244170718768146,-0.0011608303793764208,-0.02162045711884275
-0.02307390604983084,-0.00041502923409098,-0.02209305966971442
-0.023270349629456177,-0.0005356252472665801,-0.02191520616179332
-0.023768883693264797,-0.0016728179161873413,-0.0218873919948237
-0.024754173864494078,-0.0031762151593284216,-0.02284355832671281
-0.025820001610554755,-0.0037963063732604496,-0.023857937776483595
-0.026025947590824217,-0.0035651514735945966,-0.023693759430898353
-0.02584639696578961,-0.003843924332613824,-0.024321023374795914
-0.025603529138606973,-0.0055486375458713155,-0.025710949557833374
-0.023182148652267642,-0.0058390633057570085,-0.02673467679414898
-0.02183804645028431,-0.00566243625144125,-0.02536634201533161
-0.02097327342198696,-0.006295776984188706,-0.023621747459401377
-0.020425572074600495,-0.006212447715370217,-0.022206868379726075
-0.020987361494917423,-0.005607862476608716,-0.02193241562054027
-0.022473279386758804,-0.005947468252998078,-0.022316011381917633
-0.02327169022464659,-0.006025466063874774,-0.021403180653578602
-0.023817105102352798,-0.005031795808463357,-0.020847332052653655
-0.024235794626292773,-0.0039432820813090075,-0.022401687601814047
-0.02486064659024123,-0.00356175974047801,-0.023769862309563905
-0.02629020127642434,-0.0038101554764580214,-0.02315588790224865
-0.027763639081967995,-0.0035514094633981586,-0.022055983208701946
-0.028029608074575663,-0.0035232360460213386,-0.020992427380406298
-0.027437668904894963,-0.004424143298820127,-0.020827530534006655
-0.02835908526321873,-0.005152710855327314,-0.021183093849685974
-0.02807673990901094,-0.004758235263579991,-0.021678550183423795
-0.026870846340898424,-0.004313661065680208,-0.023100312319002114
-0.02658719677128829,-0.003578278665372636,-0.023015038095763884
-0.026534187782090157,-0.001329668634753034,-0.023464939658879302
-0.026271029128110968,0.0008606533583588316,-0.026572421120363288
-0.0264762929873541,0.00022367355256847077,-0.02877155020541977
-0.026916619390249252,-0.002345436087125563,-0.027692369258147664
-0.026275569325662218,-0.003561605808499735,-0.026162459107581526
-0.024385373762925155,-0.003284054628238664,-0.025159977667499334
-0.022062440621084534,-0.0024449168449791614,-0.023975011572474614
-0.02198276160925161,-0.0018655865687833284,-0.024147238946170546
-0.023324806534219533,-0.002204916199843865,-0.02453371234878432
-0.023300097382161766,-0.002964209443234722,-0.02496136585250497
-0.02280451917613391,-0.0040127702050085645,-0.024809709429973736
-0.022082587747718208,-0.004916831585433101,-0.025764882593648508
-0.02220422902610153,-0.005258406417851802,-0.0269226457021432
-0.021724534235545434,-0.004090008133061929,-0.025384217224200256
-0.020423382011358626,-0.002462785005263868,-0.02214290179836098
-0.019386026906431653,-0.002330779352632817,-0.021283778551151045
-0.019715251255547628,-0.0029570092010544613,-0.02362187660764903
-0.02033602686424274,-0.0023173367935669376,-0.025605721020838246
-0.020339406546554528,-0.0005805273417536227,-0.02524790761526674
-0.02031751864706166,0.001399210304953158,-0.02442635377519764
-0.018599470422486775,0.0002900811182371399,-0.024968869183794595
-0.01662589784245938,-0.0021822427243023412,-0.023328686438617297
-0.017759859474608675,-0.002262327143398579,-0.021017891413066536
-0.019842280380544253,-0.0009322780556431098,-0.021650464987033047
-0.02130583925463725,0.00028077931801817613,-0.02430450331303291
-0.022844647901365533,-0.0007985382808328723,-0.026854148018173873
-0.02372058224864304,-0.0016349613360944204,-0.027210549887968227
-0.02376814700255636,-0.0016968987210930209,-0.026045916456496343
-0.023485665224143304,-0.0009915947885019705,-0.02560376924520824
-0.02294244222866837,-0.001294864318879263,-0.025008295779116452
-0.0234316448768368,-0.003742998615052784,-0.023568252800032496
-0.024091876184684224,-0.00606354842602741,-0.02347957888559904
-0.0233441296586534,-0.007365272722381633,-0.02531354402890429
-0.022575135517399758,-0.006959533493500203,-0.0256738221651176
-0.022000504031893797,-0.005269321263767779,-0.02504413168935571
-0.020991714336560108,-0.003478618509689113,-0.02580480395408813
-0.021044947061454877,-0.0021466905764100375,-0.024877101168385707
-0.021815636500832625,-0.0018765737195280963,-0.02396449781372212
-0.022698062821291387,-0.002101158770528855,-0.025482668206677772
-0.02306115311512258,-0.0020703289465018315,-0.025394636395503767
-0.022279979020822793,-0.0011041340712836245,-0.02458427843521349
-0.02183513242925983,-0.0007436706255248282,-0.02474405300745275
-0.02173766552004963,-0.002958566028610221,-0.024201814085245132
-0.021512432795134373,-0.005690000307367882,-0.0235508123296313
-0.021308585928636603,-0.005438838343252428,-0.024568040316808037
-0.020674999177572317,-0.00412152712669922,-0.025001627363963053
-0.02103712540701963,-0.0032921223009907408,-0.024163029593182728
-0.0219348421524046,-0.003495591727187275,-0.022753480152459815
-0.021644964363076724,-0.003863417532556923,-0.0219970170292072
-0.02026088986895047,-0.002829920276781195,-0.0223757579078665
-0.019485230950522237,-0.002715789378271438,-0.023244618205353618
-0.019796456399490125,-0.0041538974073773716,-0.02350960494368337
-0.020595951355062425,-0.005154536665941123,-0.022906329832039773
-0.021573740013991483,-0.004539723704510834,-0.022526388420374133
-0.0216811695281649,-0.0030259332106652437,-0.022110820282250643
-0.02150036561943125,-0.002787580797303235,-0.022677686501992866
-0.021345318600651808,-0.004150816494075116,-0.024201979613280855
-0.02060142287518829,-0.005479511401063064,-0.02355067408643663
-0.02005140413530171,-0.005629025963571621,-0.022382670067599975
-0.020256460629752837,-0.004719186563306721,-0.021467014448717237
-0.020449273506528698,-0.005423471975518623,-0.019391074602026492
-0.02177492388000246,-0.005864141257916344,-0.019765937395277433
-0.023283280825125985,-0.004869863005296793,-0.020966816009604372
-0.022375474145519547,-0.00490254433316295,-0.02033907367149368
-0.02270618460897822,-0.004771100066136569,-0.02071409471682273
-0.02279308500874322,-0.002338291096748435,-0.020973593564121984
-0.02208768273703754,-0.001061221951204061,-0.021601606931653805
-0.021864903828827664,-0.002123546892107697,-0.023226091798278503
-0.02164001671189908,-0.003261612846472417,-0.023441372832166962
-0.02175788722524885,-0.0035258733532828046,-0.022614844056079164
-0.021702824597014114,-0.004155303031438962,-0.02201688948844094
-0.021194107830524445,-0.00476927425552276,-0.021928854039288126
-0.02005791975534521,-0.0047361027100123465,-0.023037784558255225
-0.019674216673593037,-0.0037041195355413947,-0.023039914594846778
-0.021330106392269954,-0.0032107952847582055,-0.02191723251598887
-0.02400930861767847,-0.003526749651427963,-0.021643842046614736
-0.025425779313081875,-0.005566018899116898,-0.02339475031476468
-0.024299564756802283,-0.006001392193866195,-0.02394269722572062
-0.022871889086673036,-0.005253768904367462,-0.022482958229375072
-0.02265348484797869,-0.0033083449579862645,-0.02206095632573124
-0.023105298168957233,-0.002773676669676206,-0.02365588807151653
-0.023790247723809443,-0.003607423195717274,-0.026228270144201815
-0.024671011487953365,-0.0025575566269253613,-0.02693356691452209
-0.024825276341289282,-0.0003299190041161637,-0.024630455300211906
-0.02454836248944048,6.723373502381946e-05,-0.02222181501565501
-0.024024429876590148,-0.00017816432773543056,-0.021768944861833006
-0.023138585675042123,0.0007958582841638417,-0.02373500683461316
-0.02389961991866585,0.001148479213952669,-0.026100278773810714
-0.02495878106856253,-0.0013928826092524105,-0.025234101485693827
-0.02497323657735251,-0.001763713498803554,-0.02330087954760529
-0.02358438359806314,0.0007896946954133455,-0.022704714865540154
-0.02328410482732579,-7.125980516775599e-05,-0.023048305592965335
-0.024882036086637527,-0.0024429352833976736,-0.02333908742002677
-0.026194731617579237,-0.004424561666382942,-0.024214568838942796
-0.025487071980023757,-0.0043845680011145305,-0.02683815182535909
-0.022889074898557737,-0.0029755221930827247,-0.02713968206080608
-0.021268102500471286,-0.002918052587119746,-0.02396172749286052
-0.021414763978100382,-0.004374325271783164,-0.021095767806400545
-0.021640717022819445,-0.003567630983525305,-0.02165996193070896
-0.0217943343159277,-0.0018541049939813092,-0.023843071176088415
-0.021951476810500026,-0.0015042940049170284,-0.024915865651564673
-0.021690431822207756,-0.0012074003734596772,-0.025312921934528276
-0.021639711121679284,-0.0028391127671056893,-0.023513763153459877
-0.024160364773706533,-0.004000679837190546,-0.02227681216027122
-0.023703423721599393,-0.0034676634186325828,-0.02163398494303692
-0.021958730940241367,-0.003197706519131316,-0.020284098354750313
-0.021862733774469234,-0.003032019549209508,-0.019846127543132752
-0.022366588382283226,-0.003190209781678277,-0.020918148948112503
-0.023284625058295205,-0.0046863124225637875,-0.021922840460320003
-0.024281014702864923,-0.005548990429815603,-0.022418373191612773
-0.024933427994255908,-0.0051328734116395935,-0.023103291823645122
-0.02434828638797626,-0.004654110853152815,-0.02304303416167386
-0.023374612283078022,-0.00390303921449231,-0.023375265300273895
-0.024396060325670987,-0.004109380824957043,-0.02498973481124267
-0.02615662924654316,-0.005378190053306753,-0.02506017881387379
-0.026360712581663392,-0.006354845936584752,-0.02370864422118757
-0.025805369659792632,-0.0058318937590229325,-0.0240276367549086
-0.024814582502585836,-0.004802804596693022,-0.02466465230099857
-0.024589944587205537,-0.004250860001775436,-0.02629887603688985
-0.02519044755899813,-0.004451630047697108,-0.02751975625869818
-0.02572782068455126,-0.004079111477039987,-0.02692183079489041
-0.025244407879654318,-0.004547668140730821,-0.025131199436145835
-0.023847887860029005,-0.005531668193725636,-0.024344051780644804
-0.02389570181549061,-0.005174872512725415,-0.02451799446134828
-0.025067936803679913,-0.0030708008580404567,-0.02425883758405689
-0.025638859369792044,-0.0014305667264125077,-0.024466298782499507
-0.0241129473579349,-0.0015590885595884174,-0.025591691155568697
-0.02167638740502298,-0.001827895175665617,-0.024277363991132006
-0.020378267436171882,-0.0015302969131880673,-0.022454376448877156
-0.02098475852108095,-0.001014441863844695,-0.022652719053439796
-0.021900070350966416,-0.0015136561160034034,-0.022567481209989637
-0.022998203348834068,-0.001736757099024544,-0.021141331671969965
-0.022843931219540536,-0.002041679636022309,-0.020481775209191255
-0.022229218302527443,-0.0026865602649195353,-0.022436066501541063
-0.021613052012980916,-0.0037866329876123928,-0.024342554752365686
-0.02016868893406354,-0.0031847328045842005,-0.024110868253046647
-0.019130937289446592,-0.0025062340682779904,-0.023839189452701248
-0.01963394788617734,-0.0029254208584461594,-0.023334729121415876
-0.020416646293597296,-0.0032896896300371736,-0.023222142772283405
-0.020649513317039236,-0.0036156911846774165,-0.023079961465555243
-0.020232821043464355,-0.0036823378195549594,-0.023679131118115038
-0.01984742448257748,-0.0035543873764254386,-0.025171300876536407
-0.021090247173560783,-0.003514062427711906,-0.025994480893132277
-0.02302750181115698,-0.002198257107011159,-0.025499968614894897
-0.02394167495367583,-0.002518797373340931,-0.025160808945656754
-0.024688020857865922,-0.005686630174750462,-0.02516286986065097
-0.023656815756112337,-0.00690945898895734,-0.025631356038502418
-0.022549766072188504,-0.0061114928939787205,-0.0242875685216859
-0.02259528628201224,-0.004785470537171932,-0.02262378257000819
-0.022834912670077756,-0.0032403681871073786,-0.022001810066285543
-0.02210197999374941,-0.0014295135315478547,-0.02258152380818501
-0.02154729372705333,-0.0012691821211774368,-0.024910255888244137
-0.02301377389812842,-0.0029140489914425416,-0.026674388209357858
-0.024710605430300348,-0.00379633729608031,-0.026243424144922756
-0.023869690267019905,-0.0031378922358271666,-0.025729767003213055
-0.02319920349691529,-0.0022555821033165557,-0.026146381060243584
-0.023331815100391395,-0.0018366547465120675,-0.027689573471434414
-0.023534565116278827,-0.0024998587377922377,-0.027186795705347322
-0.023977407181519084,-0.0021268383534334134,-0.026917678042082116
-0.023501002942794003,-0.00196438804778154,-0.026212650482193567
-0.022425740098697133,-0.002342176003367058,-0.025524997909087688
-0.023399286874337122,-0.0022956469365453813,-0.025123643354163505
-0.02512075843696948,-0.00262035882769851,-0.02463010241626762
-0.025159240976790898,-0.0033694252579152817,-0.02391859015915543
-0.024378165107918903,-0.00213116368286137,-0.022667783923679963
-0.02494848558853846,-0.0012914332501168246,-0.020323723219917156
-0.026463141693966463,-0.003443006562520168,-0.019583856555982493
-0.025629486117395572,-0.006522076091641793,-0.0212836021091789
-0.02341026993235573,-0.007195285888883518,-0.022241336409933865
-0.02348150337638799,-0.004967407676303992,-0.020560955817927606
-0.024989680241560563,-0.0035489654237608192,-0.019515726307872683
-0.024341996322618797,-0.004553414783003973,-0.0210973357752664
-0.022873200578032993,-0.006064606168365572,-0.021856491002836265
-0.022670697944704443,-0.005958831479802029,-0.021326499336282723
-0.02399838740529958,-0.004974044259142829,-0.021753005057689734
-0.02481131195963826,-0.003926284080080222,-0.022326872567646205
-0.02476657937222626,-0.0025322935925942147,-0.020767018213518895
-0.024228942493209615,-0.002484732476659701,-0.019645760403363965
-0.023579685148433782,-0.003373896561242873,-0.01973623329831753
-0.023449700165656395,-0.0038169505387486424,-0.01969610821106471
-0.02427825893391855,-0.004374275249574566,-0.020280651369830593
-0.02465136640239507,-0.0038277398743957747,-0.02119925011356827
-0.024671371647855267,-0.0032181890219362685,-0.02192875399487093
-0.025344921596115455,-0.004200457169645233,-0.0223321021621814
-0.025153638489427976,-0.0035357720662432257,-0.022897793314768933
-0.024916122129070573,-0.003866874521918362,-0.02190963459725026
-0.025195073249051347,-0.004863417416345328,-0.022381906092050485
-0.024577857402618974,-0.004277454081602627,-0.022377982531907037
-0.02421183125989046,-0.0028526610549306497,-0.021700694560422562
-0.02385666812187992,-0.0038943126128287986,-0.022428292140830308
-0.023144055376178585,-0.0064149680838454515,-0.025142640879494138
-0.022067750251153484,-0.007159123015298974,-0.027830808903672732
-0.022095135136623867,-0.0064334326452808455,-0.027907204639632255
-0.023070948373060673,-0.004973874183633598,-0.02721242344705388
-0.02414623122604098,-0.0031649160519009456,-0.027282276278128847
-0.02449133353366051,-0.0012195815770610352,-0.027671276257024147
-0.024340983145521022,-0.001000643464976747,-0.02735963062150404
-0.024483902961947024,-0.001675961811997695,-0.024820898033794947
-0.02374162431806326,-0.0015447960777237313,-0.02390876761637628
-0.022936192181077786,-0.0019720621367014246,-0.026212812372250482
-0.022831140086054802,-0.002514130756026134,-0.026664012693800032
-0.023108668756322004,-0.00268847861661925,-0.024860739358700812
-0.022047155653126538,-0.0033575618090253556,-0.022810576410847716
-0.021149708118173294,-0.0038640969250991475,-0.022014708520146087
-0.021426923922263086,-0.0036712624478241196,-0.021640003978973255
-0.02186393794545438,-0.003107189968432067,-0.022928052203496918
-0.022340636860462837,-0.0028494043817772763,-0.023656408302485943
-0.02288316682097502,-0.002337379555683583,-0.023677041099290363
-0.022995185645413585,-0.0027461394438432762,-0.023656484700040892
-0.022995487597654574,-0.0033251515105803264,-0.023212627638713457
-0.021825091607752256,-0.0031842414500715677,-0.022315452952170745
-0.021054196622571908,-0.0031692297852714546,-0.021329444280127063
-0.022060296032577753,-0.0027259620765107684,-0.021452897271956317
-0.022381125745596364,-0.0019830861219816143,-0.02255642175441608
-0.021988653315929696,-0.0016426046158812824,-0.02366589797020424
-0.021678273697034456,-0.0006863554631308943,-0.024949211365310475
-0.021224630472715944,2.44881857014434e-05,-0.025372699383297004
-0.02148878229490947,-0.0010396481684438186,-0.0246741583396215
-0.021059682694613002,-0.0028321710487944074,-0.02373240567976609
-0.020531766494968906,-0.0035308135011291597,-0.02289586336701177
-0.02134640271833632,-0.002280660282849567,-0.02190525265177712
-0.022197635189513676,-0.0004868927021561831,-0.021117164578754455
-0.02306837086507585,0.0005819802026962861,-0.021564383132499643
-0.02300339110661298,0.0014720665149070555,-0.02247061456728261
-0.02265305374749005,0.0011403010375943268,-0.022822323444415815
-0.022622833057539538,-0.00024564135969740164,-0.023024604161037132
-0.023909648007247597,-0.0022947554043639684,-0.0231520152738085
-0.02475074325047899,-0.0028627498522837413,-0.022957639885134995
-0.023501734176534228,-0.00284417887996824,-0.022258793251239695
-0.022288768377620727,-0.003135052565994556,-0.022506244931719266
-0.021826410375069827,-0.0035151706470060162,-0.023468022845918313
-0.021746320271631703,-0.0032558384646108607,-0.023826742108212784
-0.022030097170500085,-0.0026957609406963456,-0.02323559601791203
-0.02168670471291989,-0.0029974571589264087,-0.024181070330087095
-0.021092433598823845,-0.003701172090586624,-0.02609741386550013
-0.019558243366191164,-0.004154818270762917,-0.028666872822213918
-0.018058577552437782,-0.004342537522461498,-0.027796209906227887
-0.01979978878807742,-0.004373084266262595,-0.024350689272978343
-0.022431489924201742,-0.004088909918209538,-0.02349602073081769
-0.02375889198447112,-0.0029653945148311323,-0.02587919334473554
-0.02318532824574504,-0.004401597834657878,-0.027019710614695214
-0.02241065158159472,-0.007855896910768934,-0.026879140932578593
-0.021265961549943313,-0.007438749889843166,-0.026021740268333815
-0.02053148091363255,-0.004509238806349458,-0.024661896532052197
-0.021767687940155156,-0.003006598717547604,-0.02347837289562449
-0.02315425081178546,-0.002862517703761114,-0.022602962417295203
-0.02338878584851045,-0.0035130583455611486,-0.022319609342957847
-0.022091235223342665,-0.0051091019486193545,-0.02232827500847634
-0.019607761714723893,-0.006349275281536393,-0.02449893145239912
-0.01913003325171303,-0.006704230145260226,-0.02591224983916618
-0.020910269086016342,-0.005739214429922868,-0.023433156457031146
-0.021912026568315923,-0.005185698228160618,-0.019552202502381988
-0.019872199118253775,-0.004378799076221185,-0.017061553080566227
-0.019146349586662836,-0.002764539203781169,-0.018392693164059892
-0.02032450538536068,-0.0004465388485641597,-0.02043425956799183
-0.02103185215673875,0.00016429183347099752,-0.020929244783474132
-0.020553250578814186,-0.001648831357670133,-0.021212164938333444
-0.020798772311536595,-0.003503377456581802,-0.020516796212177724
-0.020060067981830798,-0.0038185312405403238,-0.017869366274680942
-0.01929433892655652,-0.003320220002933638,-0.01697854713711422
-0.02048729220405221,-0.0029476750569301657,-0.019403674741624855
-0.022925865778233856,-0.0023389741272694664,-0.020967008822481148
-0.024222079446190037,-0.0024597611627541482,-0.021570944227278233
-0.023555478037451394,-0.0031448441859538434,-0.02351658076804597
-0.02383904757152777,-0.003183531589456834,-0.024001414203667082
-0.024789769668132067,-0.001343536837339343,-0.023823922674637288
-0.026527701265877113,-0.0013605956610263092,-0.023517033696407452
-0.02711324304982554,-0.0027491432774695568,-0.022515083401231095
-0.02489808321115561,-0.004009364147350425,-0.02228294761152938
-0.0227425971388584,-0.005087393674330087,-0.02349142414459493
-0.022626940335612744,-0.004637265192286577,-0.02463309829181526
-0.023335933292401023,-0.004285067461751169,-0.024144672352122143
-0.02367295019212179,-0.004188594630250009,-0.021347734218579717
-0.02354910429858137,-0.004649581114790635,-0.021199524780968204
-0.022761914806324057,-0.005975413841952104,-0.023804459488019347
-0.022211459508980624,-0.007341251148318406,-0.024508382921339944
-0.02186597339459695,-0.006952397143322742,-0.02450360443617683
-0.021651327188010328,-0.006403198312909808,-0.024508366550435312
-0.022526768589159474,-0.006365924946294399,-0.02449742896715179
-0.02354672869842034,-0.00621716844761977,-0.02435971146041993
-0.02540790956118144,-0.005832252554682782,-0.024378643502132036
-0.025505938538117334,-0.003948054654756561,-0.023969851099536754
-0.025012515834532678,-0.003290783524789731,-0.02427620165690314
-0.025278965040342882,-0.0035341067814442795,-0.024244818632723764
-0.02592486453067977,-0.003435134431128972,-0.024170642063836567
-0.025346113034174778,-0.003459035497144214,-0.022894588255439885
-0.023307482479140162,-0.0035157838738086866,-0.02177032183681149
-0.02189944098063279,-0.003769091335925623,-0.02295355443493463
-0.02191538442275487,-0.004112182978133205,-0.024665065211593173
-0.022270996851148084,-0.00377812352780893,-0.025016899598995224
-0.02294608566444367,-0.003527434046191047,-0.024383085474255495
-0.02316181780770421,-0.0032003338219510624,-0.023841628717491403
-0.022099700800026767,-0.0021255045794532634,-0.024031893190112896
-0.021586687580565922,-0.0014208844731911086,-0.024388073143200018
-0.023717655494692735,-0.0007576482516924443,-0.023737575247650966
-0.025876030122162774,-0.0005115657586429734,-0.024500421204720624
-0.026106585210072808,-0.0010527892300160602,-0.02573736128397286
-0.024788214432192035,-0.0026891341349255526,-0.02570547985669691
-0.022975465981289744,-0.003517885716064484,-0.025594654289307073
-0.021430087144835852,-0.0029373798042797716,-0.02459640018059872
-0.020480190869420767,-0.0019529302335286047,-0.022825148334959522
-0.019936385797336698,-0.0011896120213350514,-0.022080705093685538
-0.02035195575444959,-0.000454590576737246,-0.022800442820880562
-0.021072748495498672,-0.001381721745019604,-0.02359730569878593
-0.022277157768257894,-0.002796272838168079,-0.024305178158101626
-0.024667280740686692,-0.0028110830498917494,-0.022990234356257133
-0.024643237338750623,-0.00158290674789896,-0.02261031659145374
-0.02427076469757594,-0.0024295470666402252,-0.023736360162729397
-0.023705399144091643,-0.00369488066098711,-0.023993901777430438
-0.02271206358273048,-0.0035295283851155546,-0.024122389731928706
-0.022768659619032405,-0.0015699612276875996,-0.023988694010768086
-0.023399688870995305,-0.0017179959286295343,-0.022945034288568422
-0.02404308906989172,-0.003967231805290794,-0.022686108422931284
-0.024017819669097662,-0.005290117769618519,-0.02300491905771196
-0.023720998797216453,-0.005185372174310032,-0.02345634129596874
-0.023792443244019523,-0.004515315595199354,-0.024197408492909744
-0.024551269234507345,-0.003081112708969158,-0.024044302335823886
-0.02498111643944867,-0.0022313538465823513,-0.024320044758496806
-0.02434434281894937,-0.004355785222287523,-0.024331295207957737
-0.023762360797263682,-0.005492921900440706,-0.02439448689983692
-0.025305467715952545,-0.004866581093665445,-0.024901344659156166
-0.027093434255220927,-0.005017236617277376,-0.02442346522002481
-0.02706606755964458,-0.005635558864014456,-0.02481067531334702
-0.02610255432955455,-0.00606238927503,-0.025188244762830436
-0.025906670998665504,-0.0060043626035621855,-0.023903572582639754
-0.02618139114929363,-0.004935084689350333,-0.02190265695389826
-0.02569227945059538,-0.004856444775214186,-0.021670659407391213
-0.025564395400579087,-0.006098378889873857,-0.023281496396521106
-0.02543746268202085,-0.006420628324121935,-0.02523132206988521
-0.025204197299899533,-0.004336494839662919,-0.024603892597951926
-0.025181780074490234,-0.002515496817068197,-0.023133437935030088
-0.025333964003948495,-0.0028356989787425846,-0.02429478263366036
-0.0249044915108243,-0.004511709448706824,-0.025006425858009607
-0.021659005142282695,-0.004038126462546643,-0.025167437343043275
-0.018971553799929097,-0.002526626758481143,-0.024970526283141226
-0.01939576213771943,-0.0018093128346663434,-0.025240184186259285
-0.020535278963507153,-0.0016168424963325378,-0.02667525041033514
-0.020853769456152804,-0.001789167527022073,-0.026960784452967346
-0.021813317289343104,-0.002255946355944616,-0.02602122913231142
-0.021802652554470114,-0.0022635244931734633,-0.025318693587905727
-0.021547029973589815,-0.0023860118290031096,-0.02500004666217137
-0.022190577510627918,-0.003818525783572113,-0.024783721528365277
-0.02314347329956945,-0.004750402240460971,-0.02362375562370289
-0.02304653935425449,-0.0040180693758884445,-0.023053133190842345
-0.02206543467764277,-0.0032337459288100945,-0.02267797026433982
-0.020648676581913605,-0.0023586098905070685,-0.02066032357106451
-0.020382234652061015,-0.0018521247966418741,-0.019559578504413366
-0.02151325134036597,-0.0020944482912454987,-0.02094239061989356
-0.02310326453880407,-0.0027332521312928293,-0.022053509383113123
-0.02491901977919042,-0.003926088993466692,-0.023948074158397503
-0.025885619834298268,-0.004612757038557902,-0.024632137865410186
-0.02622085412440356,-0.003832648872048594,-0.023266478820005432
-0.02585125002951827,-0.003782922249229159,-0.023097865778254345
-0.02535101884859614,-0.004203742264508037,-0.02354377465962898
-0.02478850001352839,-0.0037430097563628806,-0.022655689463135786
-0.023928592781885527,-0.0032836810532899108,-0.023319851607084274
-0.0232584607147146,-0.0037268571304593934,-0.024617525923531502
-0.024201672204071656,-0.004760833235195605,-0.023807229808880948
-0.02482642412360292,-0.005184050223761005,-0.0243012655118946
-0.024250062779174186,-0.004857169642491499,-0.025650140742072836
-0.021887131879338995,-0.0042836377360799816,-0.024337010472663678
-0.020974071958335117,-0.003484232138362131,-0.021355115677579306
-0.020771531126229092,-0.0021658845525962533,-0.020443043467821553
-0.019969354980275966,-0.0012941436580149457,-0.022437379811890423
-0.01950823025254067,-0.0025921272026607767,-0.02352397314098198
-0.019296856407891028,-0.004685192379838554,-0.022532982256961986
-0.01967992830032017,-0.004454223926586565,-0.021831794583704323
-0.019968574633821845,-0.0028135470984125277,-0.021468613340402953
-0.019744269593502395,-0.0026453369628143264,-0.02149443571397569
-0.01989236807276029,-0.0031217575724440394,-0.02283094909216743
-0.0202656246983679,-0.0017576923028173042,-0.025294339138781652
-0.0199944061023416,-0.0008941300961851084,-0.026621619326760992
-0.019142866221955046,-0.000500020973959181,-0.025676601580926217
-0.020222618331899866,-0.0004327417286731361,-0.022874452042742632
-0.01897227775771171,0.0005282465735945152,-0.02116496762027964
-0.01672040525591001,-0.00010908535585940626,-0.02139942444046028
-0.01635366970731411,-0.003340327566547785,-0.021445428501465358
-0.017893620679387823,-0.004165994141658302,-0.02136271541530732
-0.01912768311740365,-0.0021831283447681926,-0.022720072593074292
-0.019897150195902213,1.0743291589676573e-05,-0.02411041896266397
-0.021084337276988663,-0.00048117647111212136,-0.024396802473347634
-0.020915913410135545,-0.0024078688056761166,-0.02390233385085594
-0.01842704659793526,-0.003883532826876035,-0.023160626369644888
-0.01679063461779151,-0.004339214683568571,-0.024094450054690242
-0.017670854504103772,-0.002871903916457086,-0.024332170141860843
-0.01923086165334098,-0.0009158339366877044,-0.023378257537842728
-0.020358349502203055,-0.0008994826998787175,-0.022999385691946372
-0.021487359845195897,-0.0027792607397714164,-0.023449514628737234
-0.023252818209584802,-0.003645204742497299,-0.02460653558955528
-0.024324875994352624,-0.0042412498260091525,-0.026461779270903207
-0.02440708158246707,-0.004194937901047524,-0.028466400181059726
-0.024560684323660098,-0.0034545532798802014,-0.02904759458033368
-0.02460658834024798,-0.0030125759167276556,-0.02806246448017191
-0.024492825104971416,-0.0033766166325222002,-0.026012092348537408
-0.024203360226238146,-0.003944269792555133,-0.02421944918751251
-0.023871203666203655,-0.004316102149459766,-0.02296999991813209
-0.023717861040495336,-0.0030620069537690142,-0.022258926037466154
-0.02422271245450247,-0.0018293022776560974,-0.022592781533603556
-0.024663197109475732,-0.00338009704137221,-0.024508997739758343
-0.02399091317784041,-0.0055381274250976276,-0.02468879938533064
-0.025091196221183054,-0.0056204289649031125,-0.022300106138573028
-0.026080066163558513,-0.004288128820917336,-0.01964206967386417
-0.02664099338289816,-0.00274303260994202,-0.017467711586505175
-0.02691417648748029,-0.0028948031740583247,-0.017061196558643132
-0.026141842681681737,-0.004688369244831847,-0.018578735762275755
-0.024499369828845374,-0.005243532086751657,-0.02148802377632819
-0.023763459466863424,-0.004779610208061058,-0.023183974917628802
-0.02422084435238503,-0.004701065790868597,-0.025198092771461233
-0.025296531021012925,-0.00391843423130922,-0.026234109100187197
-0.025548282792442478,-0.002162411419703858,-0.02511992715881206
-0.025385350454598665,-0.0015390559156003292,-0.024119923182297498
-0.025930710762622766,-0.004039403847855283,-0.023861181034590118
-0.026671492378227413,-0.0056581670833111275,-0.024309680156875402
-0.024915138055803254,-0.005513697487913305,-0.02432306246191729
-0.02252145714010112,-0.004796465873369016,-0.023436767150997184
-0.022988579075899906,-0.003978536369686481,-0.021696987460018136
-0.02490280894562602,-0.003328712409711443,-0.022109914425527677
-0.02645265522005502,-0.004747047569253482,-0.022783931854064576
-0.027026781026506796,-0.005742604116676375,-0.02122380828950554
-0.025466668375884183,-0.005374217380449409,-0.018846008970285766
-0.024067066988209262,-0.005207226422498934,-0.019247840100433677
-0.023721611796645448,-0.003936418579542078,-0.02200692324549891
-0.023909538867883384,-0.0021322443899407517,-0.023455593691323884
-0.02425551792839542,-0.0015441579535035999,-0.02328804475837387
-0.023491447791457176,-0.001799383994693926,-0.02300836604263168
-0.022391812308342196,-0.0015337906233980902,-0.02300723826920148
-0.02182948446716182,-0.0018468049347575288,-0.023986478481674567
-0.022510948838316835,-0.0035112814202875597,-0.024507435227860697
-0.02523412331356667,-0.005785726443718886,-0.02417637369944714
-0.02662555743881967,-0.006879269221826689,-0.02312418473593425
-0.02678097916941624,-0.005318016064848052,-0.022756059479434043
-0.02599526669655461,-0.004792339041159721,-0.024774331905064173
-0.025164887119899504,-0.005542896815313725,-0.025818571884883568
-0.023029031581245363,-0.0051884394451917615,-0.024064771423581988
-0.02056594894384034,-0.0040789500417304225,-0.022584685211768374
-0.020358995243441314,-0.004300115506339353,-0.023452217646990903
-0.02250835495942738,-0.006811179446231108,-0.024486216716468334
-0.02452465741953347,-0.008642055036034435,-0.023460766897187568
-0.023212123778648674,-0.009048871106642764,-0.02270083496114239
-0.021052952433819883,-0.008094288205029443,-0.02170874722651206
-0.021033787561464123,-0.00719614354238729,-0.021206704332144
-0.022390051526599564,-0.006433825546992011,-0.02313492586836219
-0.02300137020938564,-0.005295462869980838,-0.02251017576782033
-0.023162692741607316,-0.003935577296942938,-0.021681120415451005
-0.023559963665320538,-0.00335893378178298,-0.023760139811201952
-0.02264582690258976,-0.0038936518649279606,-0.02447808947181329
-0.021658013793057762,-0.004038225597469136,-0.022366695702658035
-0.022390046069631353,-0.004043344688398065,-0.021551015379372984
-0.021843625290784985,-0.004199315753794508,-0.024291604859172367
-0.01867077298811637,-0.003957870831072796,-0.027108490030514076
-0.017366226529702544,-0.0033430246730858926,-0.027422540370025672
-0.01899439303088002,-0.002330670668015955,-0.02808314820867963
-0.019620834791567177,-0.004040593921672553,-0.027415504519012757
-0.01963094291568268,-0.006207947990333196,-0.02535979547246825
-0.020017225324409083,-0.005154218797542853,-0.02403059806965757
-0.02034602584899403,-0.0023792756564944284,-0.024513175958418287
-0.019499926565913484,-0.002884145942516625,-0.02431310531392228
-0.01915649409056641,-0.004395541054691421,-0.023626236725249328
-0.02026491165452171,-0.004679604899138212,-0.023675933334743604
-0.022273474314715713,-0.0037725201309513068,-0.02415914241282735
-0.023680406229686923,-0.002239062496300903,-0.02476329609635286
-0.023628390408703126,-0.0019087658529315377,-0.025879098757286556
-0.023618140403414145,-0.00307221580442274,-0.02567630508565344
-0.023783015421940945,-0.002537388809287222,-0.023370033886749297
-0.02425106504233554,0.000275402015859072,-0.021286385162966326
-0.024777369617368095,0.00024695438582966744,-0.021136585928616114
-0.02436688737361692,-0.0014460611055255868,-0.02194758599216584
-0.02446436155878473,-0.000831741431284172,-0.021675714378943667
-0.023680560843786225,-0.0005557079134632659,-0.022087691831984557
-0.023776803573127836,-0.000730409340121696,-0.023158856492955238
-0.024523471438442357,0.0005015319288759201,-0.024127108190441504
-0.024773393306531943,0.00039413794183928985,-0.025240893592126667
-0.02387555105087813,-0.00037856059975638345,-0.02594399484223686
-0.023069529561325908,-0.0018966803736475413,-0.026200148568022996
-0.02291563396283891,-0.0031523288726020837,-0.025543606170685962
-0.022919564798939973,-0.0031017914352560183,-0.025185652702930383
-0.023949713067850098,-0.0016784664467195398,-0.024816265067784116
-0.02562725421739742,-0.0006507343641715124,-0.022990992874838412
-0.025746627215994522,-0.001360568830932607,-0.022621954485657625
-0.02566524017311167,-0.002129997028532671,-0.023291426259675063
-0.025027920855791308,-0.0015155137589317746,-0.025661041945568286
-0.023715843781246804,6.059784141143609e-05,-0.02652415969350841
-0.024565351850469597,0.0008623663347862021,-0.02633663098094985
-0.02471948209858965,0.0012683018439929583,-0.02614507138787303
-0.02415189374005422,0.002079107389363344,-0.02533198130549863
-0.022913101929589175,0.0007982857255228737,-0.025544157324475236
-0.02084812877001241,-0.0018257310330227483,-0.025166476916638203
-0.019707626051967964,-0.003197870228177635,-0.02331231371499598
-0.019055845768889412,-0.0037253341815812746,-0.02092261638608761
-0.01728142706269864,-0.003189740937159513,-0.020655385014833882
-0.01736978447297588,-0.0008730571039450297,-0.02171284540963825
-0.01938708737725392,-2.5564517613929638e-05,-0.021320389350876212
-0.02026530091825407,-0.002234469093309599,-0.02068798494292423
-0.01901031646411866,-0.0021981347799737705,-0.02162486271117814
-0.019852670448017307,0.0005023101721235435,-0.021840956833329983
-0.020899293303955346,0.0005295935352478409,-0.022703956346958876
-0.020412306184880435,-0.0008596315410613897,-0.022770464056520723
-0.020932378902216442,-0.002063423380604945,-0.021614887373289093
-0.021271036530379206,-0.003971352725784527,-0.02108313492499292
-0.02113936898240354,-0.005125042662257329,-0.022006832296028733
-0.02075617521768436,-0.00373321381630376,-0.023790013074176386
-0.019835995772155002,-0.002476100235071499,-0.02459083407302387
-0.020216275515849702,-0.002819105930029764,-0.022496355086332187
-0.021814037609146908,-0.0036551575703924755,-0.02002937617362477
-0.022334443201543763,-0.0036061273931409232,-0.019461012925603427
-0.022313497538561933,-0.00408803907703259,-0.01876797432487365
-0.0231082558457274,-0.0038949779082031455,-0.018929020370705985
-0.024660197595949285,-0.0036839105632680003,-0.020317167582106777
-0.025702778657432646,-0.0037695456285291584,-0.021534437109949067
-0.025764480596990325,-0.0025638942133809905,-0.022456957594840787
-0.025170920707751065,-0.0033016156066878466,-0.02341166873520706
-0.024892762667150237,-0.005058727765572257,-0.024346956706722267
-0.02678463533811737,-0.005173441877559526,-0.024205548470490612
-0.02902533015003428,-0.004675707714341115,-0.02416010647721123
-0.029366205126279965,-0.005132314072398003,-0.024588985979789868
-0.02697874697332736,-0.005465646609081887,-0.023860302462708205
-0.024907627448556013,-0.006100947757659014,-0.023264226911123842
-0.02511676211724989,-0.006746158305759309,-0.023093976778909564
-0.02644483720359858,-0.007567425654997351,-0.02243934250145685
-0.026384383090771735,-0.008758754120208323,-0.02263052374473773
-0.02603576831461396,-0.008258292837126646,-0.022973305021878332
-0.024920360374380834,-0.005504180990101304,-0.02331440737179946
-0.022485315639642067,-0.004533478204393759,-0.02254267383250408
-0.021037061742390506,-0.004406541847856715,-0.021785082935821265
-0.021928701244178228,-0.004297228315408574,-0.022660264221485704
-0.023879889340605587,-0.006201032192620914,-0.02389730616414454
-0.023802092982805334,-0.007284676485141972,-0.024465789465466514
-0.023148604668676853,-0.0062345725382328965,-0.02532596954551991
-0.024638817194500007,-0.0060998172557447106,-0.0270297587121604
-0.02609538751130458,-0.006753475645382423,-0.027556416171137244
-0.025418496079510078,-0.0054737379286962096,-0.026408699341118336
-0.02448005943733733,-0.004340718533057952,-0.026024023100035265
-0.024488397684763186,-0.0042015567487396766,-0.025866889700409956
-0.024498642233083956,-0.0023335539935942506,-0.026010382498498075
-0.024346143618458882,-0.0011773976211770787,-0.02567611591075547
-0.025203125915140845,-0.0009929362931870855,-0.024521777959307656
-0.02574006430222653,-0.0008416229206886783,-0.022218144295038655
-0.026043249818030745,-0.0008368578505724145,-0.020652007151511498
-0.026045994673040695,-0.0008416460559601546,-0.020985653463867493
-0.02492877683835104,-0.0011463935152278282,-0.02232019505754579
-0.02323230728507042,-0.0020514889911282808,-0.02338017657166347
-0.022302127035800368,-0.0027758385385823203,-0.02297896207892336
-0.02160268741135951,-0.002528007144064759,-0.021228519472060725
-0.021751488020527177,-0.002179384182454669,-0.02014764686464332
-0.02224789022875484,-0.0037944112136756303,-0.019969045752077363
-0.021767842554254457,-0.0064087676037161145,-0.02025144931394607
-0.02077053432003595,-0.006589529220946133,-0.020900029994663782
-0.020310852050897665,-0.004930463092023274,-0.02098733421007637
-0.02131168730556965,-0.00422335551775177,-0.020999781554564834
-0.021105259293108247,-0.004955577423970681,-0.021767544239992276
-0.02246779877168592,-0.0051828678806487005,-0.02259100256196689
-0.024001483325264417,-0.0023384918677038513,-0.022158154024509713
-0.024121050955727696,-0.0008938766313804081,-0.021980689780320972
-0.022646543584414758,-0.0018932679495264892,-0.024162674890249036
-0.021335350538720377,-0.003991507583123166,-0.027069143470725976
-0.02106941246893257,-0.004869809345109388,-0.027313035388942808
-0.021048417693236843,-0.004233977051626425,-0.026637706469045952
-0.02144686550309416,-0.004214492491882993,-0.026645084290066734
-0.021138401280040853,-0.006314096481219167,-0.025900992113747634
-0.021258549168123864,-0.006460506483563222,-0.0231224148592446
-0.023337313905358315,-0.0037397446703835158,-0.021717713025282137
-0.023999666154850274,-0.0015162083855102537,-0.02266521187266335
-0.02228405537607614,-0.00290432694782794,-0.024629105610074475
-0.021694831957574934,-0.003775003733608173,-0.02611126001283992
-0.021845911760465242,-0.0037410413824545685,-0.024597853553132154
-0.021510282749659382,-0.0017502323998996872,-0.024241515347966924
-0.022734735466656275,-0.001217252702190308,-0.024124419724103063
-0.02414535265415907,-0.0030832377433398506,-0.024488192138960585
-0.0240836052398663,-0.004012338649772573,-0.02441221113258507
-0.02293752368132118,-0.0033756657558114966,-0.02367650085943751
-0.02255121580674313,-0.003901824129570741,-0.02266028786834795
-0.022655740394839086,-0.005243588020675816,-0.022448495656135492
-0.022527328837895766,-0.004575217644742224,-0.023581071218359284
-0.022933263608138077,-0.003331251718918793,-0.024581335310358554
-0.022679279936710373,-0.002695260945984046,-0.023063023036229424
-0.02078279976558406,-0.000812465827948472,-0.02162803866667673
-0.020088233213755302,0.00021769500335722114,-0.020964893337804824
-0.021346697394619696,-0.0013427346630123793,-0.021090125301270746
-0.023342750864685513,-0.0039431420191249344,-0.0225385301746428
-0.02478055830579251,-0.004992116828361759,-0.023553666324005462
-0.02554621642048005,-0.004521246864896966,-0.02433611916785594
-0.02486110315658152,-0.0053473986554308794,-0.023052372853271663
-0.02452524859108962,-0.0073140136009897105,-0.021651007045875303
-0.025619874577387236,-0.00865726269694278,-0.021654073862009682
-0.02654017043823842,-0.007591179382870905,-0.021415786250145175
-0.02694611430342775,-0.00562725563213462,-0.022617921786149964
-0.028165593903395347,-0.004621866082743509,-0.0241374164033914
-0.028677255613729358,-0.004232246283208951,-0.024648650651215576
-0.02686343214008957,-0.004185252691968344,-0.025677041776361875
-0.024662875148351304,-0.0036685103168565547,-0.025814810214797035
-0.02448039231239818,-0.003277053792771767,-0.02529431731090881
-0.024339457013411447,-0.004018255822302308,-0.025457635274506174
-0.024336824935744517,-0.004174617970420513,-0.02706635495997034
-0.02483474963810295,-0.002936108785434044,-0.02664094790816307
-0.026049656298710033,-0.0018736867559709935,-0.025378836653544568
-0.02608915019663982,-0.001695414994173916,-0.02536143801989965
-0.025084113076445647,-0.0016369227751056314,-0.02537869477237109
-0.024006900275708176,-0.001855947289186588,-0.024067623598966748
-0.023168380721472204,-0.002127783545802231,-0.022129946955828927
-0.02272467827424407,-0.0023287409476324683,-0.022745422029402107
-0.02310280797246378,-0.0027856556243932573,-0.024630064217490144
-0.02204059637733735,-0.004474673005461227,-0.024525337721570395
-0.020332781787146814,-0.006204616056493251,-0.02471586049068719
-0.021351817849790677,-0.0063709853748150636,-0.026167588657699525
-0.024513974494766444,-0.005890180091228103,-0.027290892830933444
-0.024919118004618213,-0.0040268209886562545,-0.02659779056557454
-0.02277129351568874,-0.002339692628083867,-0.024672504878253676
-0.02064823274849914,-0.0024343148652405944,-0.02326975118194241
-0.020537414457066916,-0.0035724765439226758,-0.023317526938626543
-0.0215451236726949,-0.004022441316919867,-0.02257675805594772
-0.022823958715889603,-0.003427510364417685,-0.020655403204727918
-0.023809254344087094,-0.002259320808661869,-0.01809720379242208
-0.023735872673569247,-0.0019629576399893267,-0.017278798623010516
-0.023245309421326965,-0.0035942575777880847,-0.020003632016596384
-0.023465570848202333,-0.005090443664812483,-0.023727559891995043
-0.023674379917792976,-0.00504909530718578,-0.0256866987911053
-0.021814164938405156,-0.004087072284164606,-0.024777487851679325
-0.019622531908680685,-0.0029176885618653614,-0.023958104065968655
-0.019945004169130698,-0.0034707059057836886,-0.02377399869146757
-0.022002672267262824,-0.0042967394620063715,-0.024123764887917787
-0.022760214051231742,-0.003372147830305039,-0.024247394321719185
-0.022813766918261535,-0.0028652409582718974,-0.0247500811383361
-0.023163029254646972,-0.003188411710652872,-0.024579654564149678
-0.023237682398757897,-0.004031882326671621,-0.02364663487242069
-0.023045951820677146,-0.0029042923870292725,-0.02327187394257635
-0.023124724975787103,-0.0019424217043706449,-0.022962534785619937
-0.023021782908472233,-0.0037445943235070445,-0.023095988581189886
-0.02240575304313097,-0.004953769348503556,-0.022573591195396148
-0.020707371731987223,-0.0038968323679000605,-0.022323985831462778
-0.020497376681305468,-0.0056137841966119595,-0.022515847376780584
-0.021015197489759885,-0.007582283615192864,-0.02328517621208448
-0.02150461295968853,-0.007524394732172368,-0.025834451662376523
-0.022492680727737024,-0.0054396450650529005,-0.026389270715299062
-0.022664300558972172,-0.004089772119186819,-0.025739898774190806
-0.02198636320827063,-0.004537085260380991,-0.025380999431945384
-0.02231207508884836,-0.0061860559981141705,-0.025600738808861934
-0.02358633719268255,-0.006507023044832749,-0.025419971279916354
-0.02476187000866048,-0.005266159860184416,-0.024713888706173748
-0.023831196813262068,-0.0036365493087942014,-0.0235135194088798
-0.021770098101114854,-0.002541054527682718,-0.02329243579879403
-0.020885867343167774,-0.0027732223770726705,-0.02290502015966922
-0.022208658265299164,-0.002239581135654589,-0.02236053660453763
-0.02299551124451682,-0.001004361024570244,-0.024163608031813055
-0.021044965251348913,-0.0023842342216084944,-0.025532797735650092
-0.01961149428097997,-0.00287925968223135,-0.02347522422496695
-0.01965882802323904,-0.003168311650370015,-0.02261841291328892
-0.020701505491160788,-0.0038908515307412017,-0.02426075479888823
-0.022150070435600355,-0.004300969521864317,-0.02611126910778694
-0.022991691366769373,-0.004197629550617421,-0.026634790629032068
-0.022652282495982945,-0.004021460881631356,-0.02600405423436314
-0.021923986423644237,-0.0027722744562197477,-0.02568242052802816
-0.02132144072675146,-0.0018999600115421345,-0.02567943920439575
-0.021516589185921475,-0.0016012703554224572,-0.024320383090525866
-0.02220223359472584,-0.00041774904957492254,-0.022603606339544058
-0.022915181034477428,0.0001295130829248592,-0.022622380129178055
-0.022356703993864357,-0.0011190110171810375,-0.022659447495243512
-0.023653487005503848,-0.0018186315173807088,-0.02062915882561356
-0.02360565667913761,-0.0008770075510255992,-0.02007959847105667
-0.022891463231644593,-2.17288853576747e-05,-0.021448175175464712
-0.022634087144979276,-0.0010061469311040128,-0.023663056708755903
-0.022982123482506722,-0.0010700016446207883,-0.02401096935500391
-0.02321282408956904,0.0005845678856530867,-0.023659609723836184
-0.022921991330804303,0.0018347537888985244,-0.023190952560980804
-0.021223178919171914,0.0009973075520974817,-0.022466965674539097
-0.020716272047138773,0.00016236076305631286,-0.02296223283337895
-0.022054980945540592,0.0005262361355562462,-0.02309006595169194
-0.022089183403295465,0.00027669594260260055,-0.021960377125651576
-0.02185723678849172,-0.0005406131435847783,-0.020505194697761908
-0.02413027141301427,-0.0014512328334603808,-0.02015929203480482
-0.025027307856362313,-0.003179236955475062,-0.020972824131604284
-0.02317163125553634,-0.004907781203655759,-0.021323790861060843
-0.021186078811297193,-0.005391164904722245,-0.02126039908034727
-0.02081497950712219,-0.0055433201850974,-0.020729004972963594
-0.02321389183634892,-0.005534724095923593,-0.019553379388526082
-0.02449351450195536,-0.005357596819521859,-0.018973547412315384
-0.024889885025913827,-0.004214467480778694,-0.019257569874753244
-0.026025880288216285,-0.0026737141070043435,-0.020338020476629026
-0.02689905340957921,-0.002177254827984143,-0.021767578800790943
-0.027122565370518714,-0.0030783580768911634,-0.02210810998803936
-0.02683288767002523,-0.0037695067476306576,-0.02222841612820048
-0.02531225254642777,-0.003864175596390851,-0.02205966302426532
-0.022047130187274888,-0.0029653522233275,-0.020196224795654416
-0.020344823496998288,-0.0025319620817754185,-0.02158632196369581
-0.021996187570039183,-0.001673984002081852,-0.023569402401335537
-0.02203606527473312,-0.0014724801076226868,-0.020958716049790382
-0.022714759325026534,-0.0009293567586610152,-0.019635084754554555
-0.023657465135329403,7.973289228857539e-05,-0.021715706679970026
-0.023564543880638666,-0.0006114931352385611,-0.023769189283484593
-0.022981785150477663,-0.0012385254422042635,-0.025020115572260693
-0.022179208826855756,-0.0008394444535042567,-0.0254262031376129
-0.021718326024711132,-0.0008390716175199486,-0.024980174202937633
-0.021451147404150106,-0.0008393971029363456,-0.022983142116572708
-0.02060164842987433,-0.002015441850744537,-0.020815788957406767
-0.020967536329408176,-0.0035607413337856997,-0.020953191778971814
-0.021855214072274975,-0.003575926029952825,-0.02272389792778995
-0.022925085431779735,-0.0030593237170251086,-0.024230372218880802
-0.024328011932084337,-0.0028535657747852383,-0.025516146706650034
-0.02277567000419367,-0.003620991719799349,-0.024884711820050143
-0.019702758436324075,-0.004865852588409325,-0.023313148631132208
-0.01962403803190682,-0.004423608515935484,-0.02371403024881147
-0.02180088631575927,-0.0024600778942840407,-0.025879671738948673
-0.023251397578860633,-0.0018195628399553243,-0.025855280910036527
-0.023954831704031676,-0.0031668869269196875,-0.024195496735046618
-0.025040291802724823,-0.005062354830442928,-0.023767588572809473
-0.02626677269290667,-0.006370917162712431,-0.02552935984567739
-0.02692014277272392,-0.006602237590414006,-0.026797084501595236
-0.025529105187160894,-0.005555617462960072,-0.0265303624473745
-0.023107411834644154,-0.0057454108173260465,-0.026349080144427717
-0.022054529836168513,-0.006176371698529692,-0.02605840563774109
-0.022479754989035428,-0.006207010301295668,-0.024724553441046737
-0.023642893211217597,-0.006535783086292213,-0.023645343389944173
-0.023306591174332425,-0.006135342573543312,-0.023087395675247535
-0.02323141961824149,-0.005294322818372166,-0.023987524400581606
-0.02469290302542504,-0.004196743702777894,-0.024846849555615336
-0.025670255126897246,-0.0044186249397171196,-0.025678584279376082
-0.025691568225738592,-0.005684406914951978,-0.025534671294735745
-0.0259117987297941,-0.008007546966837253,-0.023374293959932402
-0.027216490707360208,-0.009882444828690495,-0.02185794983233791
-0.02717922325246036,-0.009669788596511353,-0.02180174669774715
-0.02551985380705446,-0.008524771146767307,-0.023751963453833014
-0.024218554244725965,-0.007704045856371522,-0.02607111855468247
-0.023156630049925297,-0.007694578016526066,-0.026092599000548944
-0.024222155843744986,-0.006948702321096789,-0.025860810637823306
-0.026025798433693126,-0.004871413693763316,-0.026685032935347408
-0.026663768949219957,-0.0027836451863549883,-0.02493273132131435
-0.026606887331581675,-0.0019196456833014963,-0.023853614038671367
-0.02678703094716184,-0.0025351796466566157,-0.02378480894549284
-0.025537390683894046,-0.002890467612814973,-0.023091459297575057
-0.024139229935826734,-0.0016899391539482167,-0.024324015612364747
-0.023476781279896386,-0.0011346553492330713,-0.025491317501291633
-0.021942016246612184,-0.0013387611943471711,-0.023547332602902316
-0.020399671484483406,-0.0013715277873416198,-0.02152533852495253
-0.020629136997740716,-0.0030726198474440025,-0.02232357110187877
-0.02260573637613561,-0.004852487563766772,-0.02435501664876938
-0.023561276975669898,-0.00602185264142463,-0.024847695385687985
-0.02367852721363306,-0.007400402864732314,-0.024984279662021436
-0.024781802494544536,-0.0064294313233403955,-0.02582090746727772
-0.023080941900843754,-0.0031390234198624967,-0.0251829933404224
-0.020334829969215207,-0.001827247047003766,-0.02545663301134482
-0.020965970179531723,-0.0033573330711078597,-0.026101504772668704
-0.02269875221827533,-0.004867330972047057,-0.024582801415817812
-0.023791062631062232,-0.00431069702244713,-0.023439171854988672
-0.02365483669564128,-0.002782567207759712,-0.02366959597566165
-0.023759084797347896,-0.0016173523817997193,-0.023180979042081162
-0.022986952899373136,-0.0011943251365664764,-0.02303413384652231
-0.020861556549789384,-0.0010256841278533102,-0.023959828467923217
-0.018784205167321488,0.00010096622560240576,-0.02398901960987132
-0.016876096196938306,0.0005066362405159452,-0.02422002944513224
-0.016292005966533907,-0.0006387250550687895,-0.0249134682235308
-0.016914771549636498,-0.0016138892533490434,-0.02407705869700294
-0.01827818232413847,-0.0031851407129579457,-0.022331125364871696
-0.01939013964147307,-0.004121769507037243,-0.02077518729493022
-0.020218822101014666,-0.0029947213988634758,-0.020485847926465794
-0.01952705679286737,-0.002069388983727549,-0.021812897102790885
-0.018498061763239093,-0.002652880311870831,-0.022998017811914906
-0.019388746295589954,-0.0016902785091588157,-0.02262120324303396
-0.021520358131965622,-0.00143153613407776,-0.022214882847038098
-0.023021977540338412,-0.003743628212760086,-0.022747848561266437
-0.02291934833920095,-0.0060939019022043794,-0.022504098524223082
-0.0220058918785071,-0.005935941771895159,-0.021482783267856576
-0.021636362362187356,-0.003801874527198379,-0.02189524457207881
-0.02248590681119822,-0.0020984700768167386,-0.024061657313723117
-0.022943357180338353,-0.0016953440535871778,-0.02436475915601477
-0.02252690501336474,-0.0028071326596545987,-0.02272056372021325
-0.02363943167438265,-0.0024598211894044653,-0.021850115444976836
-0.023576281819259748,-0.0007673211257497314,-0.02257717824249994
-0.024041173674049787,-0.00029147423674658057,-0.023181057258625515
-0.024056984329945408,-0.0008376895834771858,-0.022359165086527355
-0.022641916075372137,-0.0007850962902011815,-0.022326188627630472
-0.021129508240846917,-0.0007381452746813011,-0.022854148483020253
-0.02093298280669842,-0.0007600018534503761,-0.022101490685599856
-0.022601579985348508,-0.0009487703778177092,-0.02194399894506205
-0.02299577863595914,-0.0011764138889702735,-0.023908103685243987
-0.021552441467065364,-0.0015263581190083642,-0.02589763062132988
-0.0204392199520953,-0.001810839080462756,-0.025967538022086956
-0.020614814275177196,-0.002129172798959189,-0.02570000651758164
-0.02000712811423,-0.0028040951747243525,-0.02584159665275365
-0.02032517659245059,-0.004190117124380777,-0.023837556000216864
-0.022708967662765644,-0.0052300747483968735,-0.023379696358460933
-0.023489976229029708,-0.005560622412303928,-0.023802844225429
-0.022157979401526973,-0.005709563993150368,-0.022590713342651725
-0.02186950405302923,-0.005258410965325311,-0.022616542992182076
-0.02267554373247549,-0.004201467618258903,-0.02351966941205319
-0.023201166186481714,-0.005082525603938848,-0.023905460693640634
-0.02245681571366731,-0.007081487183313584,-0.02365908039791975
-0.021808378733112477,-0.0077857921496615745,-0.022733252990292385
-0.022302783690975048,-0.006944917458895361,-0.022772394004277885
-0.022679343601339497,-0.005921468073211145,-0.023984162908163853
-0.022912450731382705,-0.005029732164985035,-0.02393392969679553
-0.022421374524128623,-0.0038214675441849977,-0.023383136067423038
-0.020691824829555117,-0.0020852903617196716,-0.023496095309383236
-0.021231024220469408,-0.002222220928160823,-0.023687380235060118
-0.02303021028637886,-0.00365908431376738,-0.024674038286320865
-0.023425183826475404,-0.004660839749703882,-0.027781597964349203
-0.02315092751814518,-0.004627008820534684,-0.029194365197326988
-0.0240174285863759,-0.005415782652562484,-0.02646815664775204
-0.024792376279947348,-0.006689057499897899,-0.02291897908435203
-0.025187837309204042,-0.0059090161812491715,-0.021795651264255866
-0.025513665605103597,-0.004131978585064644,-0.023720907847746275
-0.02569830758147873,-0.0035169550756108947,-0.0254703700193204
-0.024722581656533293,-0.0035326991110196104,-0.02644081905600615
-0.022792954041506164,-0.0032569535051152343,-0.026555537260719575
-0.021450090571306646,-0.0031962135835783556,-0.024813514755805954
-0.02164291072404012,-0.003801185584961786,-0.023878996216808446
-0.02264026625198312,-0.0038699213291693013,-0.025344568712171167
-0.02352712908759713,-0.003232046765333507,-0.02761185896815732
-0.02369990761508234,-0.004161974629823817,-0.026106137738679536
-0.023943468477227725,-0.005864646027475828,-0.022213085685507394
-0.023355083612841554,-0.005240895006863866,-0.02104708801198285
-0.023047217837302014,-0.003252923306718003,-0.022475915102404542
-0.024021113858907484,-0.0031197159842122346,-0.024377335648750886
-0.024089238650049083,-0.004372358944237931,-0.025240306058549322
-0.02404630504315719,-0.004083517524122726,-0.022570440705749206
-0.025023882699315436,-0.003404044491617242,-0.019188120859325863
-0.024338994990102947,-0.003737555289262673,-0.017558933905093
-0.0227895361604169,-0.002762792973953765,-0.017825030226958916
-0.021583509806077927,-0.0019280182641523425,-0.0200500653591007
-0.021820129404659383,-0.002483464186298079,-0.022238926248974167
-0.02166585181839764,-0.0028241993277333677,-0.02296553248015698
-0.02233280974905938,-0.001767974140420847,-0.02179902367061004
-0.02203653275500983,-0.0012430704146026983,-0.020318597307777964
-0.02056594348687213,-0.0015035709566291189,-0.02064765249087941
-0.019962757505709305,-0.0012948208905072534,-0.02188156395277474
-0.02038773163803853,-0.0008331190883836825,-0.02224881245638244
-0.0210310572583694,-0.001247791033165413,-0.022404698029276915
-0.02175512599933427,-0.001579380750627024,-0.02339538696105592
-0.022126570911495946,-0.00235880293075752,-0.0234839699260192
-0.023275068087968975,-0.0036721237393066986,-0.023036924176267348
-0.025219136659870856,-0.0036450210245675407,-0.022093576262705028
-0.025693230782053433,-0.0029474347229552222,-0.02081265665765386
-0.024120905436575413,-0.0017758513877197402,-0.021117353753652424
-0.022337168047670275,-0.0009999023404816398,-0.02264767317683436
-0.022131252990220673,-0.0029025829917372903,-0.02516043241485022
-0.022174592231749557,-0.003324738827359397,-0.027014390070689842
-0.023406910258927383,-0.0019650171907414915,-0.027033034712076187
-0.024351696993107907,-0.0010723304058046779,-0.02671727452252526
-0.024510385628673248,-0.0009671882708062185,-0.025779918360058218
-0.025003158953040838,-0.001319056877946423,-0.02503787982277572
-0.025424440536880866,-0.0026417546905577183,-0.024770968593657017
-0.02579297506599687,-0.005372678515414009,-0.024633174689370207
-0.02572455196059309,-0.006998024218773935,-0.024404656869592145
-0.026188725314568728,-0.0059740627875726204,-0.024327837309101596
-0.026341211196267977,-0.0030892449558450608,-0.025438053853577003
-0.025471861590631306,-0.002210879301856039,-0.027160029276274145
-0.02436521572235506,-0.0047661624194006436,-0.027693457013810985
-0.024323697289219126,-0.006181725439091679,-0.026000347133958712
-0.023510434402851388,-0.005508355570782442,-0.025648954760981724
-0.022150172299006954,-0.005166974460735219,-0.025093504518736154
-0.02161092561436817,-0.0050413000280968845,-0.02357660014240537
-0.02316736754437443,-0.005308266736392397,-0.022598353098146617
-0.02429203777865041,-0.006287994438025635,-0.02391536509094294
-0.022644167984253727,-0.007198339517344721,-0.02532703183533158
-0.02104667146340944,-0.00792999162513297,-0.025035187718458474
-0.02120099452440627,-0.007167113835748751,-0.02260664950881619
-0.021543182811001316,-0.004902497039438458,-0.020662926544900984
-0.022572095986106433,-0.0036690489650936797,-0.02108624903485179
-0.02296316233696416,-0.005239187885308638,-0.021892308723181486
-0.02207384204666596,-0.0055392210924765095,-0.020591312932083383
-0.021643298168783076,-0.0033657420317467768,-0.01780168713594321
-0.02120979843311943,-0.002908675696744467,-0.01611695915926248
-0.02202973519160878,-0.0036964138416806236,-0.01843802056100685
-0.023637341655557975,-0.003428924628678942,-0.019231565602240153
-0.024364531782339327,-0.002226968717877753,-0.01916266955959145
-0.023061380488798022,-0.0015059347333590267,-0.020134926671744324
-0.021976360585540533,-0.0021096989257785026,-0.021944282707409002
-0.022173431716510095,-0.0032815003123687347,-0.024725039111217484
-0.02191599560319446,-0.0032028203804657096,-0.025886083676596172
-0.021329382434487343,-0.0021787395780847874,-0.02356438744754996
-0.020518111341516487,-0.001727193989609077,-0.020876950657111593
-0.021954298063064925,-0.002899345417972654,-0.019765773686231114
-0.024696511900401674,-0.004683884981204756,-0.020973102436983027
-0.025988689230871387,-0.0063128404690360185,-0.0226050651690457
-0.02492991006874945,-0.005483586392074358,-0.021469357307069004
-0.022933987565920688,-0.003742782155313762,-0.02110985769832041
-0.022189396986505017,-0.004478840764932102,-0.022679916583001614
-0.021361587641877122,-0.0053956023293721955,-0.02565465729276184
-0.02018898885580711,-0.004542136593954638,-0.027750120352720842
-0.020330500774434768,-0.0043855452531715855,-0.0277210638159886
-0.02275325095979497,-0.004045667083119042,-0.025737754185684025
-0.02472139931342099,-0.0032001362342271022,-0.024243912776000798
-0.024682360162842087,-0.0019586077542044222,-0.023855827748775482
-0.024399192625423893,-0.0010291364560544025,-0.0228415010496974
-0.023546997908852063,-0.0008490786171932996,-0.021971607566229068
-0.02305496673216112,-0.0008294416602439014,-0.023670168957323767
-0.02360483631491661,7.965321202618725e-05,-0.027415240765549242
-0.023678649085923098,0.0015183899222392938,-0.02653019328135997
-0.022986254407442175,4.652122687076599e-06,-0.023928494556457736
-0.02305391535628587,-0.001954815161298029,-0.022948979676584713
-0.023432528905686922,-0.0015778375654917909,-0.022434589482145384
-0.0237938165810192,-0.001066279764927458,-0.0213598323171027
-0.023658323698327877,-0.0006017396003699105,-0.021509475118364207
-0.024046585167525336,-0.0006042205313860904,-0.024332857719855383
-0.025364044631714933,-0.0015305507758966996,-0.02740184572758153
-0.026094321583514102,-0.002431914936096291,-0.027911730285268277
-0.025561894290149212,-0.0033087101201090263,-0.02579627835075371
-0.02485795266693458,-0.0025256747449020622,-0.0251331312028924
-0.024936971385614015,-0.0010983094398397952,-0.024769331503193825
-0.025465387807344086,-0.0011270749382674694,-0.02199739174102433
-0.025343681045342237,-0.0021511525574169355,-0.021161917175049894
-0.02288889663759619,-0.0021507257770281285,-0.02334027158212848
-0.019596660422394052,-0.001631164764148707,-0.023854352548369206
-0.019493985746521503,-0.0028150329853815492,-0.0257713927567238
-0.020431623852346092,-0.004204121523798676,-0.027652919015963562
-0.02065324952127412,-0.0038540392779395916,-0.027303591195959598
-0.020575800590449944,-0.0037431864257087,-0.02678949931578245
-0.02211376340710558,-0.005165583388588857,-0.026927889848593622
-0.024439304979750887,-0.0055132345551101025,-0.02747169492067769
-0.025667992304079235,-0.004561577043205034,-0.02643083644215949
-0.025724719307618216,-0.004675919626606628,-0.024268520064651966
-0.02490695806045551,-0.005379667527449783,-0.02288413634232711
-0.02409590160823427,-0.004978952347300947,-0.02351426701352466
-0.023234917534864508,-0.003617981519710156,-0.02397894968453329
-0.022318139599519782,-0.0035315438253746834,-0.023666654669796117
-0.023815600798116066,-0.004880200322077144,-0.022564798200619407
-0.02572318226157222,-0.005362894626159687,-0.021465943063958548
-0.025911458578775637,-0.006679483703919686,-0.022543421437148936
-0.025111772629315965,-0.00854987865750445,-0.0233816808759002
-0.024301403755089268,-0.00839107178762788,-0.024054708774201572
-0.02464697536197491,-0.0067470291469362564,-0.02560366556281224
-0.02467573358444497,-0.006130098427092889,-0.026005222025560215
-0.023309883545152843,-0.006457306426455034,-0.024888775442377664
-0.02171755477320403,-0.006256492724787677,-0.02522834802221041
-0.02143328129022848,-0.005972850885882508,-0.025931720301741734
-0.021628586182487197,-0.005319198862707708,-0.023834863895899616
-0.021051000658189878,-0.004617917056748411,-0.021840742192580365
-0.020503268387983553,-0.00596961990595446,-0.021007743271184154
-0.021343674234231003,-0.007551357612101128,-0.019258401152910665
-0.022441838154918514,-0.00705971388015314,-0.018145445210393518
-0.023259517547558062,-0.005578630862146383,-0.02025229150603991
-0.023005772163742222,-0.0037104261991771637,-0.023208529455587268
-0.02298497929587029,-0.0021954324438411277,-0.023334949219133705
-0.022869446183904074,-0.0016981659882731037,-0.02232418228231836
-0.02232771657872945,-0.0006374906433848082,-0.022484693545266055
-0.02283409958181437,0.0006261489033931866,-0.022195474230102263
-0.02485783443262335,-0.0013825845144310733,-0.021083116735098884
-0.024751423552515917,-0.0044422367864171974,-0.021468173144967295
-0.02302428583789151,-0.004175191861577332,-0.02143301571777556
-0.023096674340195023,-0.0031335691801359644,-0.01974669430637732
-0.023000080545898527,-0.0038076998407632345,-0.018540322344051674
-0.022334399545798078,-0.002848005806299625,-0.018962904505315237
-0.023774675355525687,-0.0018806473462973372,-0.018946248019346967
-0.02540471359679941,-0.0021218304482317762,-0.018876047761295922
-0.025595780243747868,-0.0016350708165191463,-0.02075353950203862
-0.025406327040400356,-0.000730912859125965,-0.02246991789434105
-0.024820277758408338,-0.0011324697197778733,-0.023386473912978545
-0.02264031172671821,-0.002616241090436233,-0.025003402697620913
-0.021564357666647993,-0.003200191940777586,-0.026198164050583728
-0.022130105207907036,-0.0025837659904937027,-0.025229841412510723
-0.022423309928853996,-0.002192263764300151,-0.022110252757556736
-0.021884921807213686,-0.0026671464183891658,-0.020480380044318736
-0.021774940250907093,-0.00340972746926127,-0.021948377252556384
-0.023766220692778006,-0.005892541139473906,-0.02410803790553473
-0.023673323084949516,-0.006872488938824972,-0.02434350608382374
-0.020484150809352286,-0.005962327577435644,-0.02259926259284839
-0.02040295657934621,-0.003936730081477435,-0.02113459413521923
-0.02285482332808897,-0.0016365344208679744,-0.022686303054797463
-0.023611421056557447,-0.0018687441070142086,-0.024428700271528214
-0.02317681719432585,-0.002895150146287051,-0.024390699763898738
-0.02173186840082053,-0.003103113840552396,-0.02349974965909496
-0.02065760418190621,-0.0028533934255392523,-0.02282936475239694
-0.021283449314069003,-0.001974389306269586,-0.023593373043695465
-0.021727684725192375,-0.001285890562030545,-0.024965354896266945
-0.02163990939152427,-0.001894583874673117,-0.0260563592746621
-0.021275078324833885,-0.001259813757314987,-0.026868743589147925
-0.020423380192369223,-0.00030453000476882153,-0.026744086426333524
-0.02001135544560384,-0.001394292098666483,-0.0269914889940992
-0.01996180071728304,-0.0011927317018489703,-0.026696649001678452
-0.02006054091907572,-0.001590609258528275,-0.025280234694946557
-0.021163637939025648,-0.0028925321657879977,-0.024190057956730016
-0.022038449969841167,-0.0027464980121294502,-0.02210137427027803
-0.020180135834380053,-0.0011703101563398377,-0.02206178760388866
-0.018060909496853128,0.0007645729738214868,-0.024261769794975407
-0.01820632314775139,-0.000324980334198699,-0.024791581381578
-0.01967188472917769,-0.0033799685752455844,-0.024761338863754645
-0.020298508388805203,-0.004349628397903871,-0.025410507078049704
-0.020432384189916775,-0.004180225914751645,-0.025899598767864518
-0.021209656551945955,-0.0034692320696194656,-0.02676422991498839
-0.02190612030972261,-0.002762665872069192,-0.027838294045068324
-0.021828225726494566,-0.002553488911871682,-0.028184656912344508
-0.02263608985231258,-0.001856900894381397,-0.026423302188050002
-0.02364263309573289,-0.0018978408888870035,-0.021935731638222933
-0.023288255761144683,-0.0028353217658150243,-0.020263405531295575
-0.02266146293550264,-0.0026238324153382564,-0.021909756469540298
-0.022044943762011826,-0.0010627588835632196,-0.024493028831784613
-0.022086767785367556,-7.279455616071573e-05,-0.024017415853450075
-0.021593399651465006,-0.0017107898884205497,-0.022712143618264236
-0.02104872328345664,-0.004989790795661975,-0.02378394674451556
-0.021904763343627565,-0.006529481197503628,-0.025147795895463787
-0.02195340312027838,-0.005194442564970814,-0.02396854506514501
-0.021546111383941025,-0.004815811735170428,-0.02355308060941752
-0.022123373128124513,-0.0068755157371924724,-0.02446056532789953
-0.0231915655604098,-0.006658946404058952,-0.024520039005437866
-0.02332077201572247,-0.005165075435797917,-0.025600320441299118
-0.02233828308817465,-0.003513854608172551,-0.026008505301433615
-0.02179582770622801,-0.002687577307369793,-0.022867230654810555
-0.02156619848392438,-0.0029497766718122875,-0.021116384232300334
-0.020821871657972224,-0.005952595529379323,-0.022221534891286865
-0.020024743207613938,-0.0070790497375128325,-0.023180806238087825
-0.019354170945007354,-0.005893765774089843,-0.024235432647401467
-0.019926437744288705,-0.004951874416292412,-0.0250900393439224
-0.020900426534353755,-0.0053103572099644225,-0.02467590820742771
-0.02152558954549022,-0.00639109794065007,-0.023730664906906895
-0.02253377897432074,-0.007560493941127788,-0.023120477635529824
-0.023502696421928704,-0.0076326450653141364,-0.022734977392246947
-0.023928485461510718,-0.005926674020884093,-0.022535454263561405
-0.02460825999150984,-0.003742905846593203,-0.022776579498895444
-0.02466457044647541,-0.003209511987734004,-0.022679936591885053
-0.02469542778271716,-0.0031193660561257275,-0.02295521517226007
-0.025221997930202633,-0.0014505403669318184,-0.022527534383698367
-0.02715148548304569,-0.0007034317377474508,-0.024443650545435958
-0.027602816771832295,-0.00022486108264274662,-0.026926756618195213
-0.027198513635084964,-0.0007117951099644415,-0.027342724933987483
-0.02644174855959136,-0.0022039494069758803,-0.02508532634237781
-0.025291623387602158,-0.0030146559311106103,-0.023968439563759603
-0.023832028091419488,-0.002495471790098236,-0.0247296648012707
-0.02358947676839307,-0.0021682935766875744,-0.02456886250001844
-0.024888749976526015,-0.0017251984445465496,-0.023651233277632855
-0.026132316634175368,-0.0009758434771356406,-0.023830625650589354
-0.026062871256726794,-0.0015643897768313764,-0.024024355298024602
-0.024472499717376195,-0.003370370450284099,-0.023051943571772426
-0.024663007934577763,-0.0052135123951302376,-0.02167628554161638
-0.025675190045149066,-0.006790508450649213,-0.02097265314660035
-0.025135612304438837,-0.005548476110561751,-0.020971099729649723
-0.022711388737661764,-0.003436948190937983,-0.019492779756546952
-0.021543412003666162,-0.003698727141454583,-0.018334076230530627
-0.022194197299540974,-0.004850583081861259,-0.018560662283562124
-0.024248072804766707,-0.0037701875044149347,-0.020546343876048923
-0.02441512879158836,-0.001380716298626794,-0.021981941245030612
-0.023029700969345868,-0.0013114175771988812,-0.0215488180401735
-0.023060345483827405,-0.0049523659981787205,-0.019848472220473923
-0.02431149550830014,-0.00854792415339034,-0.02006152499234304
-0.024958953872555867,-0.007309551165235462,-0.022883788915351033
-0.025592122256057337,-0.004810764039575588,-0.024561011741752736
-0.025533789084875025,-0.005803104613733012,-0.0236898340517655
-0.02514580774004571,-0.005840589892613934,-0.023037162463879213
-0.024725823095650412,-0.004292597168387147,-0.023721511752228253
-0.02505562406440731,-0.0038778307498432696,-0.02429353116895072
-0.02527342803659849,-0.004060002083861036,-0.023899403458926827
-0.025441178877372295,-0.004882426765107084,-0.024018021576921456
-0.02663694067450706,-0.005595836682914523,-0.024315062546520494
-0.026447691197972745,-0.00614520104136318,-0.023450991648132913
-0.02595440309960395,-0.006120271336840233,-0.022791000446886756
-0.026214531317236833,-0.006857097105239518,-0.022678028472000733
-0.02589468022051733,-0.00767399887990905,-0.02405293344054371
-0.02462690281390678,-0.007643981007277034,-0.026905647246167064
-0.023209759092424065,-0.006683046649413882,-0.02850904274964705
-0.02267120908072684,-0.005320712716638809,-0.030268327464000322
-0.021837166059412993,-0.004350085873738863,-0.02869668969651684
-0.019531567886588164,-0.0039012902561808005,-0.026447942218510434
-0.018357461158302613,-0.004129609806113876,-0.02501301969459746
-0.018840888515114784,-0.0037299275845725788,-0.0228825410886202
-0.01955018706212286,-0.0027765290724346414,-0.022104188246885315
-0.01941623122547753,-0.0014934155387891224,-0.023520169634139165
-0.019425307982601225,-0.001119037733587902,-0.024065922843874432
-0.01886525387817528,-0.0023077259356796276,-0.02187166865041945
-0.01844254438765347,-0.0033017613532138057,-0.01937349406944122
-0.019177512513124384,-0.0027617477371677523,-0.018644286683411337
-0.01952587626874447,-0.001712257471808698,-0.02109477463818621
-0.019322709704283625,-0.0012550169685709989,-0.025004261260619387
-0.019610932213254273,-0.0020489044345595175,-0.02567101182648912
-0.020272285837563686,-0.003490486051305197,-0.024403047063970007
-0.020619363567675464,-0.004202728632662911,-0.024310857043019496
-0.01963119939318858,-0.004994705250283005,-0.023907108698040247
-0.019831204554066062,-0.005701170721295057,-0.023013477402855642
-0.02072247843898367,-0.004839640496356878,-0.023218864953378215
-0.0212129634746816,-0.003787087052842253,-0.023541319023934193
-0.02143845813407097,-0.003110012357865344,-0.024150276658474468
-0.021400564946816303,-0.00316847854264779,-0.023682427126914263
-0.021828169337823056,-0.0030239627903938526,-0.022264395738602616
-0.021998452211846597,-0.0024118198780342937,-0.02206101817137096
-0.02056652920146007,-0.003142915147691383,-0.024689776182640344
-0.0189406728168251,-0.004547451226244448,-0.024373232008656487
-0.01947593227669131,-0.0038913049138500355,-0.021015825041104108
-0.02119869168382138,-0.002430717586321407,-0.021082916646264493
-0.022647516743745655,-0.0013658772104463424,-0.02250237412226852
-0.02308031980646774,-0.0011898017646672088,-0.023149917979026213
-0.024013081201701425,-0.0017484511545262649,-0.023275468265637755
-0.024072407541098073,-0.0021043292690592352,-0.024190974727389403
-0.023555356165161356,-0.0027359119485481642,-0.025722396458149888
-0.023281947505893186,-0.003168050170643255,-0.026481775421416387
-0.023373520889435895,-0.002541475851103314,-0.02718362520681694
-0.024372400730499066,-0.0016583026081207208,-0.0273480163741624
-0.02499755828466732,-0.0023919983505038545,-0.025983958039432764
-0.023238382709678262,-0.00417161027144175,-0.02410494926152751
-0.0210702492040582,-0.005137031621416099,-0.023801745555829257
-0.020657542336266488,-0.0032754485346231377,-0.02259794382553082
-0.02211932951468043,-0.0006394834599632304,-0.021439287593238987
-0.02427285107842181,0.0022626084046351025,-0.02227265213150531
-0.025486337108304724,0.003074109827139182,-0.023024947950034402
-0.025081497369683348,0.00026959415322380664,-0.023467435312340967
-0.02409612716292031,-0.0020505408429016825,-0.023220578441396356
-0.02402098834863864,-0.0027457856504042866,-0.02247473457828164
-0.024491700969520025,-0.002037792228293256,-0.02211252285633236
-0.024724500690354034,-0.0007153187766562041,-0.022174514015205204
-0.0249950335273752,-0.0002749983707417414,-0.02184070399380289
-0.02576689439592883,-0.0007982597480804543,-0.022010717657394707
-0.0269700976787135,-0.0017838849544205004,-0.02254798891954124
-0.02690360452106688,-0.001877270506156492,-0.022646525394520722
-0.025112120056292042,-0.0010851696288227686,-0.02345279608562123
-0.02397293792455457,-0.0009605413424651488,-0.02436801150906831
-0.024440292690997012,-0.001492914975642634,-0.025912073397194035
-0.025357463528052904,-0.0008223677809837682,-0.025674549760879017
-0.025716935851960443,0.0005060184093963471,-0.024362370822927915
-0.026338666430092417,0.000860261138768692,-0.02449361272738315
-0.02613679134810809,0.000892627440407523,-0.024481158106937073
-0.025928427930921316,0.000996872927316872,-0.023930033421493135
-0.02567071351222694,-0.00025821651661317446,-0.02288558243890293
-0.025096731405938044,-0.0023812908693798818,-0.02338895501452498
-0.02380862133577466,-0.004758151135320077,-0.025131019356194884
-0.023142176360124722,-0.006251545528357383,-0.026331565095460974
-0.024100321752484888,-0.0070117043833306525,-0.026478224754100665
-0.025923713110387325,-0.006703412054775981,-0.025224451746908017
-0.02620785016915761,-0.006291109912126558,-0.024443512302241288
-0.02515214691811707,-0.006786600806663046,-0.025515166271361522
-0.02532002872612793,-0.007545911557826912,-0.02617972313601058
-0.025655053832451813,-0.00785139127401635,-0.023557906388305128
-0.024777908038231544,-0.0074247045631636865,-0.020697676518466324
-0.025746947358129546,-0.00790348985901801,-0.019751614672713913
-0.025795017791097052,-0.010276708053424954,-0.021011950593674555
-0.02535108069423586,-0.011786114555434324,-0.023092745323083363
-0.02621858766360674,-0.009843404768616892,-0.023072145268088207
-0.027110296286991797,-0.007077135705912951,-0.022163803805597126
-0.026628315026755445,-0.005059870090917684,-0.02166557896998711
-0.025874285711324774,-0.0033953069760173094,-0.022165839254739694
-0.02614542972878553,-0.0021674713934771717,-0.022035048459656537
-0.026099392925971188,-0.00286506269731035,-0.020895475245197304
-0.024015282178879716,-0.004067845111421775,-0.019233579223509878
-0.023358177713816985,-0.002936677219622652,-0.018950120647787116
-0.022994594473857433,-0.0011983676131421817,-0.020321020201663487
-0.02196833156631328,-0.0015354905826825416,-0.022044467186788097
-0.021599396859528497,-0.002154727781089605,-0.02293552824994549
-0.021395697331172414,-0.0019366457308933605,-0.022590287699131295
-0.021795871361973695,-0.003013653440575581,-0.02300708365510218
-0.0223462102439953,-0.0051276147132739425,-0.022921756681171246
-0.022803369574830867,-0.0050432386160537135,-0.022022057237336412
-0.023433391106664203,-0.0014244291151044308,-0.021316980564733967
-0.024325390768353827,0.00048405706820631167,-0.023248408979270607
-0.02467891499691177,-0.001483003188695875,-0.025332261429866776
-0.022935284505365416,-0.0032840594030858483,-0.025859628294711
-0.02068985122605227,-0.0026863106086238986,-0.025837996872724034
-0.02000707172555849,-0.0016448054793727351,-0.02541374669817742
-0.019334571334184147,-0.0018108930817106739,-0.024045204554568045
-0.01951247213582974,-0.002141601044058916,-0.024393426429014653
-0.020982883143005893,-0.0005256997610558756,-0.025614399419282563
-0.02213102015957702,-0.0011936015198443783,-0.02509687874407973
-0.021153236957616173,-0.003143778940284392,-0.02466284240654204
-0.020414234313648194,-0.005159636657481315,-0.023793245418346487
-0.02011946344282478,-0.006429145287256688,-0.021368130546761677
-0.02046134068223182,-0.0060802158259321,-0.021049312636023387
-0.020654724721680395,-0.005243669420451624,-0.022758516934118234
-0.01979425724130124,-0.005157163741387194,-0.024202288841479458
-0.019310384232085198,-0.0054224219638854265,-0.024379996830248274
-0.021115205527166836,-0.004515543423622148,-0.023046028218232095
-0.02437101284158416,-0.003891855158144608,-0.02264786235173233
-0.024373661290155724,-0.004498164798860671,-0.020659237634390593
-0.020996800230932422,-0.0048501701712666545,-0.020291208784328774
-0.019417808289290406,-0.0047054459173523355,-0.02238368870166596
-0.021231555365375243,-0.0044650346353591885,-0.02308190960320644
-0.02287497409270145,-0.004214469299768098,-0.024345883502974175
-0.023473825422115624,-0.0037818570035597077,-0.026769766918732785
-0.022557938791578636,-0.0023784307359164814,-0.026173634978476912
-0.02212281287938822,-0.0011947217899432871,-0.02480834700691048
-0.023179714844445698,-0.0013782586165689281,-0.025370092771481723
-0.022750580683350563,-0.002322928594367113,-0.024577606382081285
-0.021758403818239458,-0.002370497668380267,-0.02328961454622913
-0.020792240320588462,-0.0009239945484296186,-0.02347734334762208
-0.019243056158302352,-0.0016096087165351491,-0.024770932213868946
-0.019417488147155382,-0.00391369940189179,-0.02559286804171279
-0.02107710315613076,-0.004860362878389424,-0.024084320102701895
-0.021994223061483353,-0.004670479029300623,-0.02263340684294235
-0.021982332327752374,-0.004437896222952986,-0.022339008864946663
-0.02180838055210188,-0.004878983418166172,-0.022494703443953767
-0.020544561266433448,-0.004751169853989268,-0.023690052330493927
-0.019643472114694305,-0.0033981352771661477,-0.024603228666819632
-0.020914872948196717,-0.0019231915757700335,-0.024589133317931555
-0.02190747909480706,-0.000587548527164472,-0.024014865630306304
-0.02114587914547883,-0.0020423588011908578,-0.022789065042161383
-0.020378191038616933,-0.0047722701310704,-0.02283460162288975
-0.021244859453872778,-0.00461555691799731,-0.024473547455272637
-0.021920708604739048,-0.0026163393158640247,-0.025256311346311122
-0.022835327399661765,-0.0021970904526824597,-0.02521677924960386
-0.022695921870763414,-0.002321858573850477,-0.022377011191565543
-0.021979773009661585,-0.0015295358934963588,-0.02032109841820784
-0.02163757562811952,-0.0008232090067394893,-0.021220968847046606
-0.02118448173860088,-0.0011028365634047077,-0.022161129891173914
-0.020674247934948653,-0.0022741639895684784,-0.020993335056118667
-0.02145269900211133,-0.0006419892315534526,-0.02083287836285308
-0.02189413135056384,0.0017759857655619271,-0.021765896235592663
-0.02212492108810693,0.001123611241382605,-0.021552545149461366
-0.022248957975534722,-0.0005819363195769256,-0.02209841477451846
-0.021649175323545933,-0.001323578885603638,-0.02386639425822068
-0.02177354326704517,-0.0019375856936676428,-0.02343776031921152
-0.022845073544885963,-0.0019540182165656006,-0.02176408816012554
-0.023447777493856847,-0.001689962687123625,-0.02212386971223168
-0.02363625208090525,-0.0033325925414828816,-0.024714101527933963
-0.023678430807194673,-0.005120873993291752,-0.025971205104724504
-0.024336162823601626,-0.004127407919440884,-0.025646893845987506
-0.024798275262583047,-0.0017012747548506013,-0.02440833668515552
-0.02578863495728001,-0.0023059992599883117,-0.023797989342710935
-0.026583315047901124,-0.0037678410080843605,-0.02432903420412913
-0.02734287772909738,-0.0044354196688800585,-0.02434718953736592
-0.02757399488473311,-0.003909439783456037,-0.024601558834547177
-0.027183728889212944,-0.00386157944376464,-0.025420386009500362
-0.02629547452670522,-0.005017219336878043,-0.02658322046045214
-0.024402739654760808,-0.00561702654522378,-0.026253375835949555
-0.023562095520901494,-0.004111952875973657,-0.025435088900849223
-0.0234857143368572,-0.0017166817087854724,-0.025615227059461176
-0.02251520891149994,-0.0005880676212655089,-0.02481741103110835
-0.02292668796144426,-0.00144748503316805,-0.024370476239710115
-0.0256885450653499,-0.002836267640304868,-0.02550095450715162
-0.026360605261288583,-0.004641180112230359,-0.024751248929533176
-0.024301047233166173,-0.005958976089459611,-0.025742387151694857
-0.023390484784613363,-0.006670338279946009,-0.027242133000981994
-0.025148045097012073,-0.007283474587893579,-0.0268504172709072
-0.02552842670411337,-0.007529790764237987,-0.025140176148852333
-0.024055332687566988,-0.0059791013882204425,-0.02393266186118126
-0.021863525034859776,-0.004359611921245232,-0.02298823164892383
-0.020892286556772888,-0.0033531334793224232,-0.020525882064248435
-0.02158315146516543,-0.0031441225019079866,-0.018535240087658167
-0.022866774088470265,-0.0034256936487508938,-0.01935176806000527
-0.02329002381884493,-0.0038089146983111277,-0.021866693714400753
-0.023043605324346572,-0.00414698160966509,-0.023056045392877422
-0.02169685103581287,-0.0038860052882228047,-0.02398148899374064
-0.02022178341576364,-0.004342924057709752,-0.021583879060926847
-0.017660498997429386,-0.004360327238828177,-0.01983233232749626
-0.018269140127813444,-0.006014626706019044,-0.02021367436100263
-0.020197741832816973,-0.00828059455670882,-0.022058113245293498
-0.02209865670010913,-0.007766645467199851,-0.024438781110802665
-0.022386462660506368,-0.005608015271718614,-0.024337405193364248
-0.021989504602970555,-0.003377937900950201,-0.022840577003080398
-0.021522697352338582,-0.0019741535197681515,-0.022703083232045174
-0.02104455779772252,-0.0019176629848516313,-0.023093283743946813
-0.02098020922858268,-0.004078751771885436,-0.022700103727402166
-0.021502122763195075,-0.005377635261538671,-0.022613314285990782
-0.023077165678841993,-0.004980932317266706,-0.02209888225479517
-0.025656874640844762,-0.0051638467084558215,-0.021668001863872632
-0.027190731998416595,-0.004883420842816122,-0.021327685317373835
-0.026319432436139323,-0.004851934136240743,-0.022309057385427877
-0.02592063719930593,-0.004833693765249336,-0.0225121111725457
-0.026278983568772674,-0.00466598885395797,-0.023740805772831663
-0.02542213405831717,-0.00561246588404174,-0.02468917955411598
-0.023634454919374548,-0.0067787032094202004,-0.024349023078684695
-0.023067277652444318,-0.007380356237263186,-0.02362777740927413
-0.02290540942340158,-0.007192197244876297,-0.024875473172869533
-0.02206301905971486,-0.005707236596208531,-0.02607124588394072
-0.021654030206263997,-0.004183443252259167,-0.02449510975566227
-0.020784345906577073,-0.003874607955367537,-0.02372433118580375
-0.020340503397164866,-0.0049361965466232505,-0.02392534224782139
-0.020904606572003104,-0.0061121900216676295,-0.024017035684664734
-0.02098275945172645,-0.006518328518723138,-0.02463181226630695
-0.020663839677581564,-0.006499417850136524,-0.024331715394509956
-0.021500149159692228,-0.004413119313539937,-0.02363247585890349
-0.024484528694301844,-0.0004273783247299434,-0.023515034627052955
-0.0248801752604777,0.0013959507896288414,-0.023612856239196844
-0.023720060198684223,0.0005471028998726979,-0.0241288507822901
-0.023236178094521165,-0.000796444226125459,-0.024459002816001885
-0.023808997866581194,-0.0010427052075101528,-0.024688837584108114
-0.025085826564463787,6.83728202943712e-05,-0.025216131689376198
-0.02536108877393417,0.0004893785217063851,-0.02611720992717892
-0.024122213289956562,-0.0006587007419511792,-0.024926259357016534
-0.023270724341273308,-0.0022318233732221415,-0.021748910512542352
-0.02416475399513729,-0.0025041210847120965,-0.021532154278247617
-0.02650369242473971,-0.0012930289585710852,-0.024613773348391987
-0.02719899930525571,-0.0006553623848049028,-0.023996653908398002
-0.025902643756126054,-0.0011640490811259951,-0.021333595213945955
-0.024489003408234566,-0.0008266430313597084,-0.021646910681738518
-0.02421946919639595,-0.001186083750326361,-0.023379343474516645
-0.02379338002356235,-0.002730255573624163,-0.022267769963946193
-0.02403024336672388,-0.0030251728730945615,-0.02259635948576033
-0.024234903321485035,-0.0012405356528688571,-0.02317437611054629
-0.023487085854867473,-0.0010355961421737447,-0.023003522073850036
-0.02274288999615237,-0.0016970018350548344,-0.022392874598153867
-0.022317053662845865,-0.0013010601378482534,-0.021661233404302038
-0.02319754821655806,-0.0003750043049421947,-0.021848241885891184
-0.024039243726292625,-0.00017908696747781505,-0.02295055310241878
-0.023433494789060205,-0.0016425773310402292,-0.023751763364998624
-0.022356472982210107,-0.002506616056052735,-0.022393724066205323
-0.021988313164911233,-0.003166443320878898,-0.02255189247080125
-0.02185198900406249,-0.0029454506602633046,-0.024605333237559535
-0.021943844330962747,-0.002198748006776441,-0.025645693312981166
-0.02063309875666164,-0.002753650960585219,-0.027418473109719343
-0.019865210560965352,-0.004178247309027938,-0.028693890271824785
-0.020985948140150867,-0.004337925474828808,-0.02822757960529998
-0.02215272434114013,-0.0028669601306319237,-0.026455030820216052
-0.022227572117117234,-0.0025676206405478297,-0.025947090762201697
-0.023106740627554245,-0.004313222689233953,-0.02706381565076299
-0.024606046281405725,-0.006160473731142702,-0.028878481316496618
-0.023583317670272663,-0.0056222593229904305,-0.029109391107340343
-0.021303963876562193,-0.005239782694843598,-0.027902136935153976
-0.02098290315188933,-0.0050371463657938875,-0.02768792001006659
-0.022985386749496683,-0.005046208571002353,-0.02669930472620763
-0.02264614522573538,-0.0041704474824655335,-0.025110459318966605
-0.02246252552140504,-0.001664837895987148,-0.02427174331387505
-0.02356096047151368,-0.0007509451620535401,-0.023568176402477548
-0.024378401576541364,-0.002530353640395333,-0.022619129595113918
-0.024762553948676214,-0.004765018729813164,-0.022916512534720823
-0.02501923154341057,-0.005068478913017316,-0.024417035092483275
-0.024071248844848014,-0.004940815870213555,-0.02473042877682019
-0.022726897441316396,-0.004652659299608786,-0.023088487068889663
-0.023335887817665935,-0.004238815108692506,-0.022983429516898468
-0.024818325982778333,-0.0040859072214516345,-0.025198862203978933
-0.024505781766492873,-0.004695677944255294,-0.025162291422020644
-0.022840751626063138,-0.004883416750089964,-0.022189620722201653
-0.02298769322806038,-0.0029202985842857743,-0.021646097593475133
-0.02365921318414621,-0.0023908789898996474,-0.023175814931164496
-0.023748505554976873,-0.0032502944122825284,-0.022952561266720295
-0.02423572732368484,-0.0037476090710697463,-0.01983693800866604
-0.02380202931817621,-0.002486643779775477,-0.019942848666687496
-0.023656377379666083,-0.0008521815857420734,-0.0227787113544764
-0.02367703382333275,-0.0033338303637719946,-0.02338355807296466
-0.023656528355786577,-0.006537501576531213,-0.022684622308588587
-0.023119679099181667,-0.005551698905037483,-0.02119850250892341
-0.0226491301873466,-0.0030066298677411396,-0.019477824025670998
-0.023140617486205883,-0.0026395618988317437,-0.01895555578812491
-0.022801732484367676,-0.00390757941204356,-0.01936834269145038
-0.022097723558545113,-0.005751710887125228,-0.02045716973952949
-0.022907401216798462,-0.0062134486142895184,-0.020349320038803853
-0.02367694651184138,-0.005192046501178993,-0.021298223146004602
-0.02389188011875376,-0.003926754288841039,-0.021335379642550834
-0.02245287578261923,-0.004612063094100449,-0.021521313101402484
-0.021397379896370694,-0.005294488801155239,-0.023064338165568188
-0.022530961359734647,-0.005620561751129571,-0.023570775738335215
-0.022737751351087354,-0.0058915688896377105,-0.02239370769530069
-0.022631717001786456,-0.005857989435753552,-0.021449854102684185
-0.024024637241382152,-0.00545796365258866,-0.02210127240687143
-0.02432716246403288,-0.004721669483842561,-0.022377613277058117
-0.02237401895399671,-0.004882396297034575,-0.022338859707815573
-0.021289883079589345,-0.0046486547944368795,-0.02181383388233371
-0.021820314941578545,-0.004546188392851036,-0.021938378267805092
-0.021702871890738606,-0.005409301138570299,-0.022272957721725106
-0.020995888917241246,-0.005234333457337925,-0.02024478635576088
-0.021022271539550275,-0.0048320262067136355,-0.018516786440159194
-0.021918573111179285,-0.004382904990052339,-0.020391693396959454
-0.022682688722852618,-0.004376332071842626,-0.02121908255503513
-0.021980522433295846,-0.004680093752540415,-0.022676838852930814
-0.02205163582402747,-0.005072171006759163,-0.023212196538224816
-0.022284477381617762,-0.004949589310854208,-0.022402609829441644
-0.022418820663006045,-0.004513889507506974,-0.023366523237200454
-0.021945063053863123,-0.005292791684041731,-0.025462795747444034
-0.020817604308831505,-0.005857518317498034,-0.026343055651523173
-0.019830826204270124,-0.004244961019139737,-0.02483231946825981
-0.021205758457654156,-0.002463847977196565,-0.02168725768569857
-0.02378590579610318,-0.0027693281481333543,-0.02155619949917309
-0.02526352363929618,-0.002528221557440702,-0.022422969777835533
-0.024670966013218276,-0.001027664893626934,-0.02266531009809114
-0.023215547116706148,-0.0016924492456382723,-0.02224542186013423
-0.021650150301866233,-0.0022280969460553024,-0.021324554836610332
-0.02180349656555336,-0.0028111574010836193,-0.02138350646418985
-0.022765869289287366,-0.004895170604868326,-0.021659365302184597
-0.02402159407211002,-0.005998044343868969,-0.0218934437725693
-0.024039198251557536,-0.006712079539283877,-0.022701400666846894
-0.024362190742976964,-0.006170998403831618,-0.023936969228088856
-0.02520585258025676,-0.004070242994202999,-0.025076546080526896
-0.024901482902350836,-0.0028909771572216414,-0.024893555746530183
-0.023928017981234007,-0.003119601160506136,-0.024678787667653523
-0.02339519232918974,-0.0023541638256574515,-0.02603099710540846
-0.022140655346447602,-0.0010083687129736063,-0.02755019158939831
-0.020697872969321907,-0.0014639446135333856,-0.027690295610227622
-0.020314890207373537,-0.0035505595405993517,-0.025780640498851426
-0.020682302420027554,-0.003790296887018485,-0.023495598725276068
-0.022596315830014646,-0.0029086604627082124,-0.022133895981824026
-0.024313589165103622,-0.0005698172458323825,-0.022413381884689443
-0.02522928662074264,-0.0004563815707570029,-0.023615892132511362
-0.023937189325806685,-0.002005264605031698,-0.023289996534003876
-0.02364615284022875,-0.0028526762889669044,-0.022758815248380415
-0.02382336970185861,-0.003361867584317224,-0.023137079551815987
-0.02239699097117409,-0.0026958864509651903,-0.023672009774600156
-0.020716068320325576,-0.001226618906002841,-0.02342626430618111
-0.0197829522221582,5.882503728571464e-05,-0.023205633624456823
-0.020355513697722927,0.0013470701105688931,-0.023015863916953094
-0.021558356820605695,0.002582983370302827,-0.024857099560904317
-0.021826454030815512,0.003202176230843179,-0.028355414542602375
-0.02177725764340721,0.0019998733478132635,-0.02889761162805371
-0.021423607904580422,-0.0002499756419638288,-0.026750130928121507
-0.022610181986237876,-0.0007055358537400025,-0.02529530320316553
-0.025092325813602656,0.000538800463800726,-0.026168661861447617
-0.02542893707868643,0.0025364415705553256,-0.027859414331032895
-0.024271612346637994,0.0026106579298357246,-0.02721025884966366
-0.022633446860709228,0.0007910843464742356,-0.024139339075190946
-0.021001607819925994,-0.0007474603762602783,-0.022393145627574995
-0.020081724869669415,-0.0011903310905836406,-0.021549518351093866
-0.021093112081871368,7.856455397359241e-05,-0.020566032617352903
-0.022708925826009363,0.0013089090771245537,-0.021132836991455406
-0.0234465733228717,0.00122782648759312,-0.024136823412845843
-0.024299934011651203,0.0005157463078830915,-0.026933819754049182
-0.023992175556486472,0.0001385549524002272,-0.027639167456072755
-0.02354828393436037,-0.0012580312613863498,-0.026363795768702403
-0.024192842829506844,-0.003048964117624564,-0.026464767870493233
-0.025132338123512454,-0.002449027761031175,-0.027033300284529105
-0.025240637114620768,-0.003279272505096742,-0.026847063054447062
-0.024192171622416936,-0.006504922112071654,-0.026257890567649156
-0.022699830878991634,-0.007391848612314789,-0.026563615392660722
-0.021722067685914226,-0.006338820639939513,-0.028111589926993474
-0.022394637198885903,-0.005649674676533323,-0.02774641507130582
-0.023176347895059735,-0.005082581992610358,-0.025551624275976792
-0.02398594733676873,-0.005632624379359186,-0.02288073483214248
-0.02374022369622253,-0.007031157565506874,-0.022328909835778177
-0.023203792807180434,-0.008287687705887947,-0.023402495571644977
-0.023995906303753145,-0.007573915809189202,-0.0231735084526008
-0.024293711248901673,-0.006145827683212701,-0.022329530111164786
-0.023540216716355644,-0.005605850674328394,-0.022522717699757777
-0.02294401747349184,-0.0060794623095716815,-0.02317312464583665
-0.023820164642529562,-0.006600364940823056,-0.025605055270716548
-0.024889017367968336,-0.005117860837344779,-0.026585845262161456
-0.024225175366154872,-0.0035793216284218943,-0.02451719410601072
-0.023583386791869998,-0.0038670086723868735,-0.022216509023564868
-0.02280218541272916,-0.005637191861751489,-0.02165658588637598
-0.0216576736420393,-0.006252711500565056,-0.021648565962095745
-0.02156080699933227,-0.004738322331832023,-0.02128501728293486
-0.022474088837043382,-0.00268034523287497,-0.020463101463974454
-0.023400920326821506,-0.002362651002840721,-0.02031242911471054
-0.02462997508700937,-0.0036249957702239044,-0.01934130887093488
-0.024463537556584924,-0.0056729109019215684,-0.01981531022465788
-0.023185995814856142,-0.004489954335440416,-0.020125364244449884
-0.021741392629337497,-0.004387793069327017,-0.02022018816205673
-0.020561430574161932,-0.005368327492760727,-0.022138354324852116
-0.020363537259981968,-0.005603059435088653,-0.024111524908221327
-0.02129651329596527,-0.004484946202865103,-0.022111236830824055
-0.02305202178831678,-0.0032969176118058385,-0.01966213676496409
-0.023391079594148323,-0.003218460051357397,-0.020085346477571875
-0.022212825570022687,-0.004373502179078059,-0.022346315745380707
-0.020595347450580448,-0.004391921265778365,-0.02375675830990076
-0.02000794484047219,-0.004070208433404332,-0.023478361981688067
-0.01940799120347947,-0.003027299044333631,-0.021909590941504575
-0.018368587916484103,-0.002854301328625297,-0.022883432393427938
-0.01729444193188101,-0.0018496581333238282,-0.02568195304775145
-0.01838458592828829,-0.0008400169235756039,-0.026119460017071106
-0.019643637642730027,-0.0008137656095641432,-0.025153174647130072
-0.01963313843589276,-0.000858277644510963,-0.02392595706623979
-0.019742587028304115,-0.0020524641968222568,-0.023273487386177294
-0.02058750033029355,-0.003418744199734647,-0.022075551896705292
-0.02239931927761063,-0.002930505388576421,-0.02232269434898626
-0.023933223928906955,-0.0020092329577892087,-0.023854387109167874
-0.024114426196319982,-0.002440154503347003,-0.023418777345796116
-0.02327226502529811,-0.0028546769499371294,-0.020872750610578805
-0.02361839506193064,-0.0021093130726512754,-0.01898368827824015
-0.024377177396672778,-0.0017092887674152735,-0.021080091755720787
-0.023321201297221705,-0.002124721504515037,-0.025377905330969952
-0.020579540432663634,-0.002183122887799982,-0.02762212898232974
-0.020568393665598705,-0.001908601916511543,-0.027495161702972837
-0.02321078318345826,-0.003833818027487723,-0.02653752926562447
-0.02504145413695369,-0.00622118523097015,-0.026781612177728675
-0.025046012524398975,-0.004676674052461749,-0.026712814360507764
-0.02456471156619955,-0.0012928030628245324,-0.0244594211835647
-0.02406391649856232,-0.00011072655325961023,-0.022248988898354582
-0.023025148038868792,-0.0012461036931199487,-0.021735871996497735
-0.021578978703473695,-0.0012343459729891038,-0.021817519154865295
-0.021193045540712774,-0.0004783763074556191,-0.02129705171682872
-0.022492176867672242,-0.0006399039307325438,-0.022153677491587587
-0.024559265511925332,-0.001098920051845198,-0.02474647953931708
-0.024868000764399767,-0.0011760070037780679,-0.02577190207375679
-0.02391163980064448,-0.0004000413298399508,-0.026005560357589275
-0.02232803853985388,0.0005020740445615957,-0.02434357702441048
-0.02126734580087941,0.0003687583216560597,-0.022425874703912996
-0.020821164071094245,-0.0015605905900883954,-0.02365917134738993
-0.0221861046156846,-0.0031513709473074414,-0.023228551071952097
-0.02364943065913394,-0.00434095318269101,-0.0214514529943699
-0.023628153940080665,-0.004517102297540987,-0.022285423256107606
-0.022999258362688124,-0.004490848368732259,-0.02509244040993508
-0.022991416699369438,-0.004783240910910536,-0.025596031264285557
-0.02200870221713558,-0.004103071660210844,-0.02484258948243223
-0.02131163637386635,-0.004140089913562406,-0.02328685877728276
-0.021693551389034837,-0.004734773938253056,-0.021164540157769807
-0.02222476905444637,-0.0043246163841104135,-0.019833492842735723
-0.02262668203911744,-0.004192654159851372,-0.01903614611364901
-0.022011265173205175,-0.004521785285760416,-0.019938517652917653
-0.02029384813795332,-0.0038609014154644683,-0.02045503606495913
-0.019632057956187055,-0.0038787893572589383,-0.020184288587188348
-0.019830404198728502,-0.003935243967134738,-0.02239674904558342
-0.020896572095807642,-0.0039598362491233274,-0.025403140170965344
-0.021882351575186476,-0.005755550773756113,-0.025900693799485452
-0.022452313714893535,-0.006884529284434393,-0.02454672721796669
-0.02226480319222901,-0.007201010248536477,-0.02400736957497429
-0.02181295167247299,-0.008205970516428351,-0.023489938030252233
-0.02256459993077442,-0.008515463377989363,-0.023742970370221883
-0.02440071875753347,-0.007923818884592038,-0.025894329155562446
-0.024499035134795122,-0.007067951628414448,-0.02616266101540532
-0.023187896658782847,-0.005886219241801882,-0.025023651687661186
-0.022383428586181253,-0.005237941422819858,-0.02498928370187059
-0.023317385057453066,-0.004203233402222395,-0.02485014010744635
-0.025158689823001623,-0.004028237071906915,-0.022883019482833333
-0.02461390249663964,-0.006257423592614941,-0.02139182652172167
-0.023711785615887493,-0.006361884061334422,-0.02077190947602503
-0.026036565031972714,-0.0051625211199279875,-0.020996805687900633
-0.02897491867770441,-0.0033678109048196347,-0.022123338567325845
-0.02925513035734184,-0.002665249439814943,-0.022442491172114387
-0.027931013391935267,-0.0030276578399934806,-0.02293068973813206
-0.026687192075769417,-0.0030893104394635884,-0.023870581571827643
-0.02725231388467364,-0.0031333152037404943,-0.023328320821747184
-0.028183787435409613,-0.0029411803552648053,-0.02299946208950132
-0.028102058422518894,-0.0023082131974661024,-0.023536042135674506
-0.026536135919741355,-0.0030722956125828205,-0.02545566348999273
-0.02603386565169785,-0.004159371201239992,-0.026808247639564797
-0.027386315196054056,-0.0030998523925518384,-0.025627783543313853
-0.028298652978264727,-0.0006959022016417293,-0.023962909835972823
-0.027381278414395638,-0.0008328533454005083,-0.023794040316715837
-0.025981928047258407,-0.0007588867561025836,-0.023899536245153286
-0.025394723706995137,-0.0005536904268410581,-0.02222242983407341
-0.024107501303660683,-0.0008809809060039697,-0.02158256756956689
-0.023328577299253084,-0.0010083848565045628,-0.022477346647065133
-0.023172584405983798,-0.0013091545270071947,-0.022803262254456058
-0.023469567167921923,-0.0027258681711828103,-0.020876599592156708
-0.02344137647014577,-0.0037166994388826424,-0.019914637960027903
-0.023840661015128717,-0.0032045536499936134,-0.021803736672154628
-0.023729593522148207,-0.0017436464077036362,-0.024455759557895362
-0.02272518031531945,-0.0015024431831989205,-0.026246076231473126
-0.02166604099329561,-0.0025217300390067976,-0.027850677724927664
-0.021961031961836852,-0.004928371254209196,-0.02653176306921523
-0.022058671675040387,-0.005736065304517979,-0.023834005332901143
-0.023831391445128247,-0.004526370503299404,-0.02099967241520062
-0.026041940145660192,-0.0032186958378588315,-0.021358922822400928
-0.026901554520009086,-0.003215543301848811,-0.02240203320980072
-0.026445391995366663,-0.0037201446048129583,-0.02225260504928883
-0.02566557850514073,-0.0029968141461722553,-0.022004755010129884
-0.025696253942442127,-0.002327355787201668,-0.02226896322099492
-0.024997005311888643,-0.003065664941459545,-0.022954362066229805
-0.02406860403425526,-0.004772708962264005,-0.022775877368985675
-0.023682890969212167,-0.005197065547690727,-0.023764116122038104
-0.02338459307793528,-0.005209511982684489,-0.02488262725819368
-0.021866253518965095,-0.005197216523811221,-0.025185021513607353
-0.020994903024984524,-0.005543684892472811,-0.024853979994077235
-0.02107887848978862,-0.005404419880505884,-0.02565300019341521
-0.021936815755907446,-0.004248523964633932,-0.026581530619296245
-0.02116623909387272,-0.003469542662060121,-0.025982690203818493
-0.019763716409215704,-0.002861468828996294,-0.025443470804020762
-0.019761599105549976,-0.0031860029139352264,-0.025829856895143166
-0.01990625423786696,-0.0037803922623425024,-0.025842715331236832
-0.019793582396232523,-0.0031104211757337907,-0.025508170438115485
-0.02013456105487421,-0.0010507319530006498,-0.024490142095601186
-0.020297715309425257,7.630183063156437e-05,-0.0240140943787992
-0.021881951397517696,-0.0014005699995323084,-0.025290959456469864
-0.023170894564827904,-0.0026971213173965225,-0.02569633761595469
-0.021948346329736523,-0.0028598628887266386,-0.022569982320419513
-0.02096904609061312,-0.0035157345337211154,-0.02099032099067699
-0.02094370938721113,-0.004561580681183841,-0.022036885638954118
-0.020225750631652772,-0.004762581284012413,-0.022713989892508835
-0.020077388398931362,-0.003906905021722196,-0.021608902898151428
-0.02096734897349961,-0.002452494982208009,-0.020321454940130934
-0.020561545170494355,-0.0013317929870027,-0.02060764563793782
-0.020090903490199707,-0.0015208853483272833,-0.021382636987254955
-0.021529869627556764,-0.002534394980102661,-0.021641588318743743
-0.02218279223598074,-0.002649839871082804,-0.02136631701432634
-0.02043950189545285,-0.002745776555457269,-0.021472029402502812
-0.0186331872100709,-0.0030964545203460148,-0.02141686127288267
-0.01885230631160084,-0.0027857363420480397,-0.021031853975728154
-0.02163138378818985,-0.0031249139738065423,-0.02114144263032358
-0.02361768565606326,-0.0025532121981086675,-0.019367187633179128
-0.023808192054275423,-0.0028787978862965247,-0.019381102902116254
-0.023495575078413822,-0.003886973445332842,-0.021193620341364294
-0.0231925405387301,-0.003834326889773365,-0.02001517714234069
-0.022589347281609662,-0.0031621366360923275,-0.019140719814458862
-0.02280976877955254,-0.004014582827949198,-0.021599307729047723
-0.024324865080416203,-0.005317455361364409,-0.024509927243343554
-0.02483414937159978,-0.0059383391999290325,-0.026347135644755326
-0.025245477445423603,-0.006405975454981672,-0.02640077036630828
-0.024614490030216984,-0.005484042958414648,-0.02545615097915288
-0.022367732526618056,-0.003463763732725056,-0.025235158318537287
-0.02085645610350184,-0.0018023412167167407,-0.026005489417002536
-0.020516745280474424,-0.0012336939789747703,-0.02546423456806224
-0.022011270630173385,-0.002249675162602216,-0.025970195565605536
-0.023346154193859547,-0.004535711013886612,-0.026681769668357447
-0.022672093109576963,-0.004534405434242217,-0.029467930289683864
-0.022709285985911265,-0.002405866325716488,-0.030444018193520606
-0.020715846403618343,-0.002114826884280774,-0.028318196200416423
-0.02040851722995285,-0.004044138222525362,-0.02635273995110765
-0.022428204829338938,-0.004489511866268003,-0.0263519450527383
-0.023582681023981422,-0.004091058599442476,-0.025535457098158076
-0.02365719228691887,-0.00496302072860999,-0.02389976907579694
-0.023379097910947166,-0.005546904958464438,-0.02392469468759373
-0.024156275685527362,-0.00475114029541146,-0.02545402639952954
-0.026666926714824513,-0.0033796152365539456,-0.025769768399186432
-0.027216601665713824,-0.003557431227818597,-0.02581572516646702
-0.025711877242429182,-0.004743114914163016,-0.025850602469290607
-0.023730912289465778,-0.005505014541995479,-0.02359340578550473
-0.023807444449630566,-0.004854567123402376,-0.022668353267363273
-0.022957572582527064,-0.004150026143179275,-0.02292346107424237
-0.02297091850778088,-0.0037467493712028954,-0.022261758203967474
-0.024375420252908953,-0.002964230361612863,-0.02190274062741082
-0.024121665774146095,-0.002136795728802099,-0.021429150365293026
-0.02319073428225238,-0.0012610980775207281,-0.020846408006036654
-0.023643589884159155,-0.000278431372180421,-0.020805209715035744
-0.02544797280279454,-0.0011230604286538437,-0.02023939487116877
-0.02593680619611405,-0.003876234586641658,-0.019426066501182504
-0.02449843486829195,-0.005095613687444711,-0.020480441889958456
-0.02270568256790284,-0.004040948624606244,-0.02215259701188188
