ch_0,ch_1,ch_2
-0.02275149199704174,0.005366434379538987,-0.036221830669092014
-0.02145408325304743,0.0038466823752969503,-0.03658592686406337
-0.02139128810085822,0.003180808789693401,-0.03590290725696832
-0.023199398128781468,0.0030859914659231436,-0.033849970350274816
-0.025257124434574507,0.002888968538172776,-0.030716488254256546
-0.026485087801120244,0.0013633076605401584,-0.027688798581948504
-0.02655504249560181,-0.00182892142674973,-0.02659936944837682
-0.02537732507335022,-0.004915858880849555,-0.025711062335176393
-0.024997694708872586,-0.005154176506039221,-0.025341496439068578
-0.024253533410956152,-0.003629929551607347,-0.02530559322622139
-0.023617232727701776,-0.0050922476475534495,-0.026628986233845353
-0.02310288073203992,-0.008062369488470722,-0.028337732146610506
-0.022449152311310172,-0.009797171514946967,-0.029930502932984382
-0.022515478121931665,-0.010162922990275547,-0.029359936888795346
-0.022920314222574234,-0.009837376637733541,-0.025369094146299176
-0.022983047529123724,-0.010581182323221583,-0.0204304997168947
-0.02300758205819875,-0.012369559954095166,-0.017893045878736302
-0.024277123884530738,-0.011858758625749033,-0.017809446944738738
-0.025116891265497543,-0.009988000783778261,-0.017960473996936344
-0.02388147186138667,-0.008989242815005127,-0.01767447065503802
-0.022748006813344546,-0.007664391887374222,-0.015921235899440944
-0.021643290892825462,-0.0062046647144597955,-0.015604611689923331
-0.021736057533416897,-0.005696099378837971,-0.016766884073149413
-0.022919381081010215,-0.007834907592041418,-0.01862301905930508
-0.024550423404434696,-0.009651313121139538,-0.018565186110208742
-0.024567150830989704,-0.00949652985582361,-0.0182881503860699
-0.024160553948604502,-0.007706094947934616,-0.018364864445175044
-0.023604145098943263,-0.006051845502952347,-0.01808441083994694
-0.022992093363427557,-0.006231533461686922,-0.017632062736083753
-0.02265183866256848,-0.0063380339270224795,-0.01850783701229375
-0.022667411030852236,-0.005328571205609478,-0.020703950212919153
-0.022651927793049254,-0.003865581220452441,-0.023212489395518787
-0.023484559278585948,-0.0024439693788735894,-0.02330009374418296
-0.023958869860507548,0.0008019152346605551,-0.022111073121777736
-0.024330463929800317,0.0040709155655349605,-0.024572009351686575
-0.024494333047186956,0.004853016889683204,-0.02773422238533385
-0.024455646780552343,0.0040772238207864575,-0.029136082957847975
-0.025274082872783765,0.0030760588742850814,-0.029838258342351764
-0.024586210201960057,0.0025954450393328443,-0.030064373277127743
-0.023045757188810967,0.0029731488666584482,-0.03170978379785083
-0.02256769766972866,0.0030442320166912396,-0.03307446604594588
-0.022812739189248532,0.002057504389085807,-0.03249476867495105
-0.022817392164142802,-0.000319552526661937,-0.031806775950826705
-0.02180976116505917,-0.001503259682067437,-0.031504674552707
-0.021558545995503664,-0.00034167399576290336,-0.03210154682165012
-0.022296791939879768,-8.207469903709352e-05,-0.03290871609351598
-0.02406586099823471,-0.0013178489552956307,-0.033358832297381014
-0.024954901164164767,-0.0021228324840194546,-0.03246657797717489
-0.025682849809527397,-0.002859919050024473,-0.03055934575968422
-0.024781318643363193,-0.0043080985960841645,-0.02944198604382109
-0.02412764479231555,-0.006277006377786165,-0.030655512091470882
-0.02472646337992046,-0.009066598977369722,-0.03188502523698844
-0.02364963074796833,-0.010869028301385697,-0.029935059501440264
-0.02198731635871809,-0.010300926987838466,-0.027838510504807346
-0.022434933271142654,-0.009725258678372484,-0.027311483790981583
-0.022993979655439034,-0.010933841622318141,-0.02641016362758819
-0.02220422356913332,-0.012323161172389518,-0.024963888790807687
-0.0217616579902824,-0.01257960593648022,-0.023661754312342964
-0.022937350877327845,-0.01334068292635493,-0.022842094040242955
-0.023876313207438216,-0.013588752153737005,-0.022515807359013706
-0.024003707949304953,-0.013751384358329233,-0.023241913368110545
-0.023518281523138285,-0.013596221833722666,-0.022682677808916196
-0.024148293960024603,-0.012357146260910667,-0.021695756004191935
-0.02369064895901829,-0.010348020623496268,-0.022686941520078108
-0.023890645024948753,-0.009783784662431572,-0.0226945303438697
-0.024218610633397475,-0.009228958333551418,-0.021095787815283984
-0.0242213936871849,-0.009290166417486034,-0.020316463633207604
-0.023871993107604794,-0.009260396836907603,-0.019423932826612145
-0.0235002826229902,-0.00898657162906602,-0.0179936942004133
-0.023336579033639282,-0.00842851477500517,-0.016818061340018176
-0.023115018848329782,-0.006480782758444548,-0.015823399735381827
-0.02417683026578743,-0.0034162410429416923,-0.01531778798380401
-0.0259716125583509,-0.0006979061026868294,-0.017490934624220245
-0.02578891690063756,0.0019737919956241967,-0.021118128643138334
-0.023196376787382178,0.00451836058346089,-0.02212692743341904
-0.022325437385006808,0.005542194685403956,-0.021980691599310376
-0.023053011318552308,0.006879354259581305,-0.022429163436754607
-0.02386066989856772,0.00913788335310528,-0.024002631107578054
-0.023926344510982744,0.009343341844214592,-0.026763569621834904
-0.023768376195221208,0.00787037151894765,-0.02975821917061694
-0.024432685677311383,0.005839429377374472,-0.03060192830162123
-0.02569932803453412,0.006095453045418253,-0.03014888716279529
-0.026523250198806636,0.008082756721705664,-0.029106216970831156
-0.025699924663058482,0.0079071787695284,-0.02756473077170085
-0.024337146896868944,0.00520857338415226,-0.027477770345285535
-0.02474775828886777,0.0024616003884148085,-0.029421316867228597
-0.025690160327940248,-0.0002002511081400371,-0.03196380930603482
-0.02570276592450682,-0.0032003658816393,-0.03209188798791729
-0.026321709810872562,-0.005140627308719559,-0.03109813405899331
-0.025652178010204807,-0.004720693141280208,-0.03108072269242257
-0.02474358188919723,-0.0055148325373011176,-0.03210103386663832
-0.025285726223955862,-0.0083304985309951,-0.03195578756276518
-0.02500799746485427,-0.009481675078859553,-0.0292767053906573
-0.02512252285669092,-0.009008551387523767,-0.026126437660423107
-0.02561563451308757,-0.008493399946019053,-0.02400704579486046
-0.02569619391579181,-0.008954802979133092,-0.02332918120373506
-0.024415156076429412,-0.011054149581468664,-0.023357690224656835
-0.022720156266586855,-0.013095336726109963,-0.023069318558555096
-0.02109514935000334,-0.01218526995216962,-0.022717700630892068
-0.020385188690852374,-0.009626978680898901,-0.021741461750934832
-0.021448398911161348,-0.009204938578477595,-0.019923729269066826
-0.023669081201660447,-0.01078129844245268,-0.018389457181910984
-0.02316913378308527,-0.01091423928301083,-0.018301527234143578
-0.022371013983502053,-0.0090054909378523,-0.018958276996272616
-0.02324309025425464,-0.008124951818899717,-0.0192975603567902
-0.02463176497258246,-0.00740716723157675,-0.02172844142478425
-0.02436267641314771,-0.006385523647622904,-0.024140503228409216
-0.023874219550634734,-0.0047118423935899045,-0.025264684154535644
-0.023522881747339852,-0.004303934474592097,-0.026322897610953078
-0.02323982880625408,-0.004522812105278717,-0.026331959816161543
-0.023563912691315636,-0.0024111925540637458,-0.024837157980073243
-0.024722172383917496,0.0006083998300709936,-0.023880298613221385
-0.025306946554337628,0.0027522323762241285,-0.025454728529439308
-0.024931247025961056,0.004006316885352135,-0.027508782295626588
-0.024548555302317254,0.005090400009066798,-0.027428037356003188
-0.023374115698970854,0.005686799340764992,-0.027025103918276727
-0.023331651391345076,0.006079690137994476,-0.026688085199566558
-0.023349026378127746,0.006990153906372143,-0.026452657039044425
-0.023158418116508983,0.00636577169643715,-0.027553021936910227
-0.021917321646469645,0.005276229330775095,-0.028269416361581534
-0.022987245756667107,0.004258075477991952,-0.028041875339113176
-0.02394448711129371,0.002803764118652907,-0.02767930163827259
-0.0243323029280873,0.0007915157311799703,-0.025512992579024285
-0.02341529034310952,-0.00019071502777023852,-0.023098542442312464
-0.02223208502982743,-0.0006466357262979727,-0.023301650799112394
-0.022464624635176733,-0.001785629706319014,-0.02542182664910797
-0.02239489731437061,-0.0019189296835975256,-0.02801822301989887
-0.022043112039682455,-0.0012790654864147655,-0.029095794161548838
-0.023221569790621288,-0.002563727775850566,-0.029061047825962305
-0.024677910914761014,-0.004032345259474823,-0.028191509045427665
-0.024713106540730223,-0.006649489478149917,-0.026422749215271324
-0.02309951014467515,-0.01048649846779881,-0.0249513268499868
-0.022910551706445403,-0.011986698154942133,-0.024906334147090092
-0.024385839424212463,-0.01225710457219975,-0.026065297788591124
-0.02579525789769832,-0.013239487088867463,-0.02703330210351851
-0.025728571927174926,-0.01523697119409917,-0.025974073651013896
-0.024989747544168495,-0.015781810361659154,-0.02347095505683683
-0.02418720760033466,-0.01673971382842865,-0.021718717107432894
-0.02460541327309329,-0.01840232653194107,-0.020212522940710187
-0.025515664674458094,-0.01760773557180073,-0.019130753571516834
-0.02444559686409775,-0.013436625522444956,-0.018296883354196325
-0.022541405996889807,-0.009908895663102157,-0.01677736872807145
-0.022634461856796406,-0.008919129868445452,-0.015015583812783007
-0.022944721422391012,-0.008507809070579242,-0.01321529816777911
-0.021423409634735435,-0.007033616839180468,-0.01220870854012901
-0.022635174900642596,-0.007003668088145787,-0.012111134310544003
-0.024083110474748537,-0.007640122021257412,-0.01398487074766308
-0.02389770634181332,-0.007665143129997887,-0.014206657397153322
-0.02217463043052703,-0.00681070332575473,-0.013503810805559624
-0.02098617551382631,-0.006209399543877225,-0.015036657714517787
-0.021904819732299075,-0.00583996688874322,-0.017181631847051904
-0.023402149963658303,-0.0042747183215396944,-0.018669796190806665
-0.024653512809891254,-0.0021124278646311723,-0.02095812487823423
-0.02449592466291506,-0.0008580507824262895,-0.023988133762031794
-0.022906218873686157,0.0011791570386776584,-0.026109306418220513
-0.02219842644990422,0.003065296596105327,-0.026345693186158314
-0.0226527208724292,0.004859754426433938,-0.025690296752145514
-0.023013262762106024,0.0072281118264072575,-0.024458140615024604
-0.023181848519016057,0.007213211574708112,-0.026311758119845763
-0.02341095205338206,0.005989733381284168,-0.028547112378873862
-0.023660375518375076,0.004807205641554901,-0.030874402000335976
-0.02348736052226741,0.003243545734221698,-0.032119900424731895
-0.02308309922227636,0.0020331265204731608,-0.031856612622505054
-0.02282786044816021,0.0018468176676833536,-0.031560521165374666
-0.022257510863710195,0.0013505770084520918,-0.032120427931658924
-0.021213551008258946,0.0005611680649053596,-0.031503193895332515
-0.021053983800811693,-3.651552660244306e-05,-0.03142194327665493
-0.02211005448771175,-0.0007129222581170325,-0.03223930252715945
-0.02291372584295459,-0.0015836571947147604,-0.031800096621736884
-0.022358161004376598,-0.002967457021441078,-0.030756003980059177
-0.02179467264795676,-0.005774039436801104,-0.031537707400275394
-0.021511634258786216,-0.007813395313860383,-0.03102246773778461
-0.02325957757420838,-0.00849625575938262,-0.029001244911341928
-0.02486311859684065,-0.008747676474740729,-0.02710549597395584
-0.026337222152506,-0.011457678738224786,-0.025902485504047945
-0.027506564947543666,-0.015159229405981023,-0.02392579335719347
-0.027764453989220783,-0.016626634533167817,-0.02183721517212689
-0.026666790290619247,-0.01479978618590394,-0.020763613065355457
-0.023984901417861693,-0.012432564290065784,-0.019042361600440927
-0.02276925260957796,-0.012105858331779018,-0.017827296687755734
-0.022909976905793883,-0.012770384273608215,-0.01801085272745695
-0.02357536504860036,-0.01235898434970295,-0.018986584109370597
-0.023658270947635174,-0.011008666660927702,-0.018359340174356475
-0.024009515982470475,-0.009239991413778625,-0.015786792573635466
-0.023673446776228957,-0.007910927706689108,-0.013595801647170447
-0.02391396810708102,-0.00810236088000238,-0.013992009371577296
-0.024480204956489615,-0.006866160674690036,-0.01645938027650118
-0.02481639603502117,-0.004445635568117723,-0.016928288459894247
-0.024458120606141165,-0.0028963384011149174,-0.016877973394002765
-0.02497449349903036,-0.002167010961784399,-0.018816233932739124
-0.0257748306466965,-0.0006429432346521935,-0.021518644643947482
-0.026287441869499162,0.0007615066692778782,-0.023556074665975757
-0.02657144250406418,0.0005077477567283495,-0.024277987904497422
-0.026444602553965524,0.000660331920698809,-0.022608564904658124
-0.024985401978483424,0.0030226581202441594,-0.022252123017096892
-0.022742748114978895,0.005013499958295142,-0.023522017727373168
-0.022967227778281085,0.005527821031137137,-0.02462750308040995
-0.023301885448745452,0.005030070497014094,-0.02364256579312496
-0.022375525077222846,0.005053222594142426,-0.022631982574239373
-0.022953852749196813,0.006726641458953964,-0.022903810531715862
-0.023537964807474054,0.007469135198334698,-0.025395411284989677
-0.02344778840779327,0.00671410725772148,-0.027815349312731996
-0.02258372842334211,0.004553116923489142,-0.02890076575567946
-0.021831050617038272,0.0014029072872290271,-0.030040760975680314
-0.022020311007509008,-0.0010942511607936467,-0.03074261621804908
-0.02327520451217424,-0.0012178586530353641,-0.03127243326161988
-0.025596666091587394,0.000341143447712966,-0.032084175472846255
-0.027399029931984842,0.001098003281185811,-0.03188589835190214
-0.027406804292695597,3.779890889177295e-05,-0.030429411708610132
-0.02550463250372559,-0.0020310781110310927,-0.0289827621600125
-0.025001356334541924,-0.004857767635257915,-0.02735285488597583
-0.02635498640302103,-0.005954715106781805,-0.0259543776337523
-0.026250616429024376,-0.007021213605185039,-0.025001065296237357
-0.026131290724151768,-0.008118050573102664,-0.024386466975556687
-0.02818124630721286,-0.009283718100050464,-0.020915978893754072
-0.029318041924852878,-0.010864168871194124,-0.017659207514952868
-0.028902451958856545,-0.01280080687138252,-0.017558428226038814
-0.027587364456849173,-0.014458602890954353,-0.01700837856333237
-0.02529452285671141,-0.014139224731479771,-0.013956770999357104
-0.024343045879504643,-0.01282155790249817,-0.010810815183504019
-0.02433324516459834,-0.011918122254428454,-0.00939902110985713
-0.023253378458321095,-0.011755530977097806,-0.010056375685962848
-0.022987027477938682,-0.01218914803757798,-0.010531167390581686
-0.022037816961528733,-0.011294809155515395,-0.01138520565291401
-0.020651266822824255,-0.009166634299617726,-0.012971272553841118
-0.02124646562151611,-0.007729897333774716,-0.014605263459088746
-0.023565931769553572,-0.009142426279140636,-0.016340240108547732
-0.0244663970079273,-0.008800262548902538,-0.01921336297527887
-0.02354842763452325,-0.005647670150210615,-0.022536361939273775
-0.02354885873501189,-0.0031219785796565702,-0.02205140481237322
-0.024328448489541188,-0.0009587583917891607,-0.019671979316626675
-0.023604859961778857,0.0011799546655311133,-0.019196409994037822
-0.022774616809329018,0.0014981665117375087,-0.02152540946553927
-0.023140019038692117,0.0005757148073826102,-0.023611295546288602
-0.024362463591387495,0.001775494524736132,-0.026854449970414862
-0.025112738512689248,0.004170177362539107,-0.03255325282225385
-0.024702821974642575,0.005627525752061047,-0.03525916690705344
-0.023177826733444817,0.006033185854903422,-0.03341742558404803
-0.022634747438132763,0.005141821020515636,-0.03212364390492439
-0.022628681108471937,0.003815537638729438,-0.0332954696204979
-0.023612785298610106,0.0012491791494539939,-0.034974946174770594
-0.02458709968777839,-0.00029796390776937187,-0.036479166737990454
-0.02407877764198929,0.0005246474188425054,-0.0363368853868451
-0.0238277243624907,0.0014422151934923022,-0.035852724977303296
-0.023816584871383384,0.0011018431678166962,-0.03661148366518319
-0.022886686565470882,0.0003001387653966958,-0.03783398642553948
-0.021530486264964566,-0.001492530714131135,-0.0369805347872898
-0.02153221248590853,-0.0038070350001362385,-0.03419898348511197
-0.023548724129796028,-0.004761745458381483,-0.03216573168174364
-0.025802200980251655,-0.004582652309181867,-0.030560549930669367
-0.02584540743555408,-0.006772299911972368,-0.029725586500717327
-0.024626324375276454,-0.00963416550803231,-0.02969939487229567
-0.02298736580996774,-0.01128420808527153,-0.029421951694530435
-0.023127122403820977,-0.012947697541676462,-0.0315297584165819
-0.02357040466449689,-0.011984936463704798,-0.032417163311038166
-0.022951293431106023,-0.011645930499071255,-0.030725972465006635
-0.02173883513023611,-0.013703240256290883,-0.030106353733572178
-0.021399848264991306,-0.016262933058897033,-0.02957557990157511
-0.02220032001787331,-0.017314994693151675,-0.02765644239843823
-0.022669502868666314,-0.0173179323610384,-0.025640869353082962
-0.022414562408812344,-0.016169560694834217,-0.02547299300204031
-0.023113267161534168,-0.014615434338338673,-0.025689081667223945
-0.02389371184108313,-0.013686472811968997,-0.02481844785506837
-0.02478516398696229,-0.012366707778710406,-0.02313121694896836
-0.024501483494532295,-0.01190489001601236,-0.021981404643156566
-0.022523116058437154,-0.011904888197022956,-0.0223293827730231
-0.020690004021162167,-0.011471403922769241,-0.022120430003269576
-0.02135662543878425,-0.01081178561435081,-0.02054463402600959
-0.02294900878041517,-0.009750945537234657,-0.019160477677360177
-0.023301377950701863,-0.0070018072619859595,-0.0205085761990631
-0.022060285118641332,-0.003444259846219211,-0.022502372303279117
-0.02080241210933309,-0.0008249357961176429,-0.023081876861397177
-0.020105895600863732,0.0003105699306615861,-0.02180129013140686
-0.020871064407401718,0.0017164384189527482,-0.02031631811405532
-0.02205615419370588,0.004470297426450998,-0.021330968593247235
-0.02246576150355395,0.006555631443916354,-0.02414463415334467
-0.022040876501705498,0.007341602668020641,-0.02496964589226991
-0.02247470911242999,0.008177854397217743,-0.024529041183996014
-0.02385222069278825,0.00820294826553436,-0.0256532512139529
-0.024529128495487384,0.006871595815027831,-0.025188357540173456
-0.024730661607463844,0.0038768985177739523,-0.025135514079011045
-0.025187095161527395,0.0023769011932017747,-0.025194183763233013
-0.025898294552462175,0.0028679889965133043,-0.02583553214208223
-0.02594829857116565,0.0035075925097771687,-0.02633249641803559
-0.02526094795030076,0.002898121920225094,-0.02674962888704613
-0.024902601580834016,0.0007721423003204109,-0.02722132921917364
-0.0240383069467498,-0.0014777569958823733,-0.02713727008085698
-0.024140235836966895,-0.0026701359274738934,-0.02585864785942249
-0.02446630969643593,-0.003487129561108304,-0.024941224182839505
-0.023938624508446082,-0.005419658009486739,-0.02414246046100743
-0.023366108507616445,-0.006468413630500436,-0.02197520916524809
-0.024336399292224087,-0.005558370958169689,-0.019989067368442193
-0.025330455173389055,-0.005990289082546951,-0.019928167603211477
-0.024957482310128398,-0.008106643690553028,-0.02168504761357326
-0.02359383688599337,-0.010440374353493098,-0.02162649434467312
-0.023280905224964954,-0.011215297490707599,-0.020991194105590694
-0.02334981400053948,-0.010935660611721687,-0.02134264104824979
-0.02396250783931464,-0.010315433428331744,-0.02169992876588367
-0.024339229639736004,-0.009630278327676933,-0.021221681890892796
-0.023049296942190267,-0.008991253707790747,-0.021553662008955143
-0.020929683159920387,-0.00809567154647084,-0.02270405639137607
-0.02105076600855682,-0.006544742518599378,-0.02304901681782212
-0.02295521517226007,-0.0038418511394411325,-0.021895777535974048
-0.02348092857573647,-0.0015883745163591811,-0.02121320903825108
-0.023015218175714836,-0.0010000804877563496,-0.021623936845571734
-0.023309959942707792,-0.0024071432562777773,-0.023049209630698897
-0.022739033738616854,-0.0037108304695721017,-0.024477332772221416
-0.022110369172878563,-0.005321611752151512,-0.02580982072686311
-0.02309298906766344,-0.004287301180738723,-0.026432244339957833
-0.024334869522135705,-0.0010846451914403588,-0.02702840902202297
-0.024000877601793036,0.0018683140297071077,-0.0275515212706523
-0.022932907086214982,0.0016325876686096308,-0.026884126782533713
-0.021955240299575962,-0.0006719318434988963,-0.025601984816603363
-0.02217575820395723,5.3430646573815466e-05,-0.02522679824323859
-0.022730970158590935,0.003729896434379043,-0.026397558031021617
-0.022694151994073763,0.005636929472530028,-0.02803483948810026
-0.022520182028529234,0.0057453430599707644,-0.029642733352375217
-0.021714506146963686,0.005229096132097766,-0.03189895141986199
-0.021653009753208607,0.005214958036958706,-0.03406312316656113
-0.022729365809937008,0.004925526809529401,-0.03576761082513258
-0.023766839149175212,0.003633919050116674,-0.035841545468429103
-0.024112294340739027,0.0031379800020658877,-0.03531006950652227
-0.022692402126267552,0.0030851449537294684,-0.03535427094902843
-0.021023621229687706,0.002679295221241773,-0.03667250712169334
-0.021632447896990925,0.0009707290473670582,-0.03620088318712078
-0.023697017240920104,-0.0007028222057670064,-0.03361016933922656
-0.025469325919402763,-0.0015564756949970615,-0.03093573104706593
-0.0266832848865306,-0.0027530120405572234,-0.02870961543521844
-0.02653177762113046,-0.003794997383010923,-0.02641651917656418
-0.025802868549362756,-0.003907016434823163,-0.0246232193603646
-0.025386649213032797,-0.0053312091949919704,-0.023145286832004786
-0.02630711969686672,-0.009100835995923262,-0.023156173483585007
-0.02564806527516339,-0.01156554753833916,-0.024680824935785495
-0.024500026484020054,-0.011560428902157582,-0.02486503217369318
-0.024388098609051667,-0.011416797860874794,-0.023605060050613247
-0.02404711631243117,-0.012698546015599277,-0.0231149770115735
-0.025233530323021114,-0.01425037862645695,-0.021879925043322146
-0.02661997132236138,-0.014952564015402459,-0.01914865970320534
-0.02662553197296802,-0.014441752682614606,-0.015505420378758572
-0.02534460145398043,-0.014131237549008802,-0.013559108083427418
-0.0238352149608545,-0.01351663377135992,-0.013997460882819723
-0.023091011826181784,-0.011222628018003888,-0.01572959081386216
-0.0231295452977065,-0.009219625098921824,-0.01628385143703781
-0.023017017156234942,-0.008909411917557009,-0.014854924302198924
-0.023462960598408245,-0.0071800959631218575,-0.013826660506310873
-0.02299590050824918,-0.005552078619075473,-0.014933155398466624
-0.022957639885134995,-0.006962383849895559,-0.01638035428186413
-0.022518883270095102,-0.008089748007478192,-0.01774337033566553
-0.02276828672620468,-0.006835291969764512,-0.018465616449248046
-0.02311531534360256,-0.004562967205856694,-0.018510740119381808
-0.022622507458436303,-0.0009349611218567588,-0.019499962945701554
-0.021990696041029878,0.002054086962743895,-0.021422469217213802
-0.021812455088365823,0.003113856337222387,-0.021558849766734056
-0.021159648895263672,0.0027127430257678498,-0.01985713970498182
-0.021590378310065717,0.002082910214085132,-0.019972401787526906
-0.023354910808848217,0.003072783329116646,-0.022582178644370288
-0.025331886718049645,0.005310536380420672,-0.023745695216348395
-0.025092289433814585,0.00703480827723979,-0.024424212824669667
-0.025162686142721213,0.007875502888055053,-0.02563964153523557
-0.0243128597503528,0.008744175829633605,-0.025406112399650738
-0.023248745492310263,0.009300491910835262,-0.027241287170909345
-0.022607853679801337,0.006241209575819084,-0.029222517696325667
-0.02257476262457203,0.002050366674666293,-0.029870208891225047
-0.023338237951975316,0.0002694837348826695,-0.029042052119621076
-0.022779051505494863,0.000989566160569666,-0.02822896567522548
-0.02151351327484008,0.002392708665865939,-0.02762998155958485
-0.021344640117604285,0.002827525122484076,-0.02635434066178277
-0.021029311028541997,0.001665628474256664,-0.026313166017644107
-0.020400902940309606,0.00024253532160400937,-0.02786469667626079
-0.020578489056788385,-0.002778972202577279,-0.030579190934076905
-0.02163432327506598,-0.005942401458014501,-0.03079682937823236
-0.02353422860323917,-0.007163512691477081,-0.029782229830743745
-0.024330591259058565,-0.008212113243644126,-0.029878476198064163
-0.0243951944867149,-0.009809610673983116,-0.0286314152617706
-0.02507398858142551,-0.013159507943782955,-0.027497064365888946
-0.02526140997360926,-0.01587972838024143,-0.026096102374140173
-0.02423343357804697,-0.016822104953462258,-0.024433353246422485
-0.02413245601928793,-0.016964782844297588,-0.021798168745590374
-0.02433160989312455,-0.01679223532846663,-0.020307021259213798
-0.024691353246453218,-0.01645576958253514,-0.02048582064162474
-0.026290910682291724,-0.01478345711802831,-0.02004847010539379
-0.028425432901713066,-0.012547880032798275,-0.018637243556440808
-0.02853714977391064,-0.011657104550977238,-0.01800001882656943
-0.025918958272086456,-0.009958953341993038,-0.01959785004146397
-0.023847473130444996,-0.006875884537294041,-0.021461626602103934
-0.025282961360062473,-0.005426602456282126,-0.020690356905106455
-0.027530566512723453,-0.004189370429230621,-0.020340881746960804
-0.027685024178936146,-0.0043887894207728095,-0.021430456399684772
-0.025903471396304667,-0.006048322120477678,-0.02244242568849586
-0.024506787667633034,-0.006891295470268233,-0.022998920030659065
-0.024220369596150704,-0.005813700227008667,-0.023214684915728867
-0.02508647412469145,-0.002344377207919024,-0.02475898145348765
-0.02551518628024496,7.784425548607032e-05,-0.02731353379203938
-0.024885712264222093,0.0008638230042379291,-0.027906444302061573
-0.024816563382046297,0.002238882871097303,-0.0274174253718229
-0.02454469540680293,0.004373040155769559,-0.02877540282497648
-0.02433135887258686,0.006478821887867525,-0.031582851079292595
-0.024487295377184637,0.006160892553452868,-0.033516080293338746
-0.024499735445715487,0.0032630321129545337,-0.031567717087455094
-0.02434505950077437,0.0014998850019765086,-0.0313826858473476
-0.02473986205586698,0.0011374942232578178,-0.0336279408656992
-0.025784718673094176,0.0003948134974507411,-0.03436042243265547
-0.02638283149281051,-0.0003791691085552884,-0.03362776624271646
-0.026278774384991266,-0.0010850948228835477,-0.03141976412734948
-0.025676119548734277,-0.0010782945309983916,-0.03012405795743689
-0.026280085876351222,-0.0016670669538143557,-0.03077146175201051
-0.026671617888496257,-0.0022717756564816227,-0.031051880796439946
-0.025069857656490058,-0.0033870242077682633,-0.030854203941999003
-0.02338329613849055,-0.004633518983609974,-0.03116172956652008
-0.023248283469001763,-0.006158541509648785,-0.030770028388360515
-0.024824694264680147,-0.007357709364441689,-0.02877492988773156
-0.026375426386948675,-0.007115646894817473,-0.02836385101545602
-0.026998048269888386,-0.006396038315870101,-0.028369198844302446
-0.026275332857039757,-0.006614505764446221,-0.02588117786217481
-0.023815979147912003,-0.008508985047228634,-0.021885245587327518
-0.022299072952591814,-0.011192982128704898,-0.01926718141476158
-0.022367166820913553,-0.012152762792538851,-0.017022362953866832
-0.02288785071868915,-0.010922261026280466,-0.015106838873180095
-0.023064792912919074,-0.010031436431745533,-0.015384646758320741
-0.024152346668415703,-0.010085407666338142,-0.01627921847102698
-0.02420665623503737,-0.009245553883374669,-0.014983395885792561
-0.02246880467282608,-0.00841932251205435,-0.01256001451110933
-0.021177273083594628,-0.008687739864399191,-0.011632747373369057
-0.02202489304181654,-0.0089044824562734,-0.011190329132659826
-0.023177759430836886,-0.007178819032560568,-0.010935750651697163
-0.023024946131045,-0.0059557460190262645,-0.011528721188369673
-0.0229907309403643,-0.0062029666878515854,-0.013590482922154479
-0.024182460037991405,-0.0048991150833899155,-0.014901201211614534
-0.02426346873107832,-0.002743741561062052,-0.014164631465973798
-0.02376212978560943,-0.0009624898211768596,-0.01266629624296911
-0.023547361706732772,0.000236463250757879,-0.013415642570180353
-0.02366752414673101,0.0016599584569121362,-0.016089965356513858
-0.02336878787900787,0.0022293543224805035,-0.02033454984484706
-0.023343141947407275,0.0019245846942794742,-0.024489008865202777
-0.024953515094239265,0.004003777121397434,-0.027934203899349086
-0.02640861384861637,0.008151352631102782,-0.0291544092760887
-0.026562724087852985,0.010321845365979243,-0.029324810384423472
-0.02611271156638395,0.010837447916856036,-0.0303321321553085
-0.02423113619443029,0.00988035935733933,-0.03232959716115147
-0.0236765463341726,0.009077426511794329,-0.03385889795026742
-0.023483675249735825,0.007508834187319735,-0.034069453249685466
-0.02306821261299774,0.005752203378506238,-0.03426304101594724
-0.02378984572715126,0.004696124051406514,-0.03586648381315172
-0.024597156880190596,0.002808855469993432,-0.03595400266931392
-0.025455690774833784,-0.0010399156735729775,-0.033960277505684644
-0.02500043046893552,-0.003141536808470846,-0.032464424293721095
-0.022715437808074057,-0.003830650257441448,-0.031168186978902668
-0.02094505907734856,-0.005047978447692003,-0.029382985303527676
-0.021276975530781783,-0.004849687684327364,-0.027853659048560075
-0.021653593648807146,-0.004260147761669941,-0.027246898753219284
-0.021131452740519308,-0.005482468623085879,-0.027316249543218873
-0.02041108746198006,-0.00888269642018713,-0.02708031388465315
-0.020463086912059225,-0.012332923688518349,-0.026088448066730052
-0.02248557939310558,-0.015616078599123284,-0.02401375058980193
-0.022436077415477484,-0.01745507870509755,-0.021328993170754984
-0.021748377548647113,-0.017760961782187223,-0.021657691831933334
-0.02258525819343049,-0.018633829313330352,-0.02258234417240601
-0.023693060938967392,-0.019117878764518537,-0.0219314570131246
-0.0239254495681962,-0.01824765422497876,-0.020360575945232995
-0.023571114070364274,-0.01696867730061058,-0.018117187210009433
-0.02401543315500021,-0.015494404578930698,-0.016615122149232775
-0.023741909899399616,-0.013563913853431586,-0.017015237972373143
-0.023109274479793385,-0.011237550097575877,-0.017064192434190772
-0.023612903532921337,-0.009842612598731648,-0.01720133877824992
-0.023429169232258573,-0.0095544410214643,-0.019058910766034387
-0.023029397198115475,-0.008985952263174113,-0.01962491478479933
-0.024447464966215193,-0.010007844139181543,-0.018989239833899774
-0.02463834243826568,-0.011235642887186259,-0.019700184566318057
-0.023761784177622758,-0.010376879799878225,-0.021514901163754985
-0.024717843189137056,-0.00820119930722285,-0.023689774025115184
-0.025466022634645924,-0.004291606728656916,-0.026615689421305433
-0.02411721106909681,-0.002139036496373592,-0.028425223717931658
-0.02245843643322587,-0.0017974622323890799,-0.028054470021743327
-0.022475345758721232,-0.00023561850071018853,-0.02768541526165791
-0.023758746465318836,0.002208731302744127,-0.02839817534550093
-0.02503042560419999,0.0037466816138476133,-0.02912760101025924
-0.02523028706491459,0.005032185072195716,-0.029722876206506044
-0.02426433638902381,0.006270763606153196,-0.03157179162371904
-0.02400271660008002,0.0065592353166721296,-0.03319892130093649
-0.023228274585562758,0.005913957465963904,-0.03325051875435747
-0.020987443349440582,0.004882397661276627,-0.03172584911226295
-0.01966236777661834,0.005261551905277884,-0.03110203761025332
-0.020072697225259617,0.006123834737081779,-0.03186937465216033
-0.020941117327311076,0.005008498646930093,-0.03273038601037115
-0.02218481313320808,0.0022143133264762582,-0.03273083711974323
-0.02290772317792289,-0.0006732091151206987,-0.03334946450195275
-0.023032720491755754,-0.001499200038779236,-0.03448186907917261
-0.022661104594590142,-0.0022154349608172197,-0.033798271033447236
-0.02285631126142107,-0.0034366642012173543,-0.031479750759899616
-0.023554253857582808,-0.003872350134770386,-0.02937731369456742
-0.02420550117676612,-0.003105838686678908,-0.028620825105463155
-0.023931073883431964,-0.0031355637020169524,-0.02894390308938455
-0.02219728412455879,-0.005557748409046326,-0.0287411439785501
-0.02134134410880506,-0.007179748990893131,-0.02709102955122944
-0.023348031390924007,-0.007886444109317381,-0.025322504370706156
-0.024100510927382857,-0.008386702575080562,-0.02458147173456382
-0.025174342226819135,-0.009611608220438939,-0.023186716134659946
-0.026864445317187347,-0.009746506293595303,-0.019536564650479704
-0.02679784120118711,-0.009662131560617127,-0.016953274098341353
-0.02459795359754935,-0.01106464333133772,-0.015806886949576437
-0.02210542152170092,-0.011252286640228704,-0.014702702173963189
-0.02059666621789802,-0.009735141247801948,-0.014268596714828163
-0.020241861420799978,-0.007196929800556973,-0.01468679965910269
-0.02102100734191481,-0.004575747425406007,-0.014470118912868202
-0.020793027943000197,-0.00436458685726393,-0.014524064681609161
-0.01965091360034421,-0.006258133907977026,-0.015461142538697459
-0.020238809156580828,-0.005605870228464482,-0.01545424856885802
-0.021321222448023036,-0.0028724484764097724,-0.013269373084767722
-0.022414527848013677,-0.002500197979315999,-0.01172783686342882
-0.02372003291384317,-0.002287542656631558,-0.013937782568973489
-0.02399772529315669,-0.0004552568952931324,-0.016017904272302985
-0.023908081857371144,0.0007734412292847992,-0.015985473510227166
-0.02366262378927786,0.001121250761570991,-0.015522366084042005
-0.02389373184996657,0.0029431118946376955,-0.017430385923944414
-0.024339318770216778,0.004987201009498676,-0.02077579847536981
-0.024411288904957473,0.0057210104387195315,-0.02225590833404567
-0.023553584469482303,0.0061139044191804715,-0.02198902438976802
-0.021556350475293584,0.00706142736817128,-0.02243941526103299
-0.020156790924374945,0.006449904049077304,-0.02266141564177815
-0.02116728137480095,0.003960699814342661,-0.02384657273069024
-0.02179952025471721,0.0022567598989553517,-0.027549845981411636
-0.02114151902787853,0.0014639927030657418,-0.030272360163507983
-0.020679686713265255,0.0005973241172796406,-0.031943134672474116
-0.01952187631104607,-0.0004934310027238098,-0.0324281572829932
-0.018874710804084316,-0.0020860986751358723,-0.03286341598141007
-0.01925041215145029,-0.0028716160613839747,-0.034183813113486394
-0.02101370228047017,-0.0028353522338875337,-0.03507832298055291
-0.02231097823823802,-0.0036762805848411517,-0.034760691050905734
-0.023098302335711196,-0.006185380243550753,-0.03338554597576149
-0.02376003612880595,-0.007993633516889531,-0.03245865445933305
-0.023995187802938744,-0.00773547071730718,-0.0334522919729352
-0.022969552446738817,-0.007570619345642626,-0.03416935578570701
-0.02179502735089045,-0.009244668035535142,-0.03295668648206629
-0.02165986006730236,-0.010828638551174663,-0.031800544093130156
-0.021645271772285923,-0.010891982128669042,-0.031052757549332455
-0.02361002225370612,-0.011547440408321563,-0.02717577081057243
-0.025054101570276543,-0.011045843166357372,-0.024569771994720213
-0.025312065190519206,-0.01218729175889166,-0.023935050194268115
-0.02492615931259934,-0.013475893865688704,-0.023066302674124017
-0.023971640985109843,-0.014445296983467415,-0.021414320144685917
-0.02377293276367709,-0.013979070899949875,-0.020823928934987634
-0.02512162427592557,-0.013351864254218526,-0.0212609284062637
-0.026737145162769593,-0.012655175851250533,-0.02191094790759962
-0.02725227204791736,-0.011594091120059602,-0.021105304767843336
-0.02619649239932187,-0.010739559911598917,-0.01989217162190471
-0.02489719190634787,-0.008677283403812908,-0.019101846191915683
-0.02496615707059391,-0.005831571797898505,-0.01925416654557921
-0.025820292648859322,-0.004580230779538397,-0.018991699107573368
-0.02567891169746872,-0.005499352937476942,-0.016193522242247127
-0.025831537641352043,-0.004754984729515854,-0.014015847227710765
-0.027017438696930185,-0.0032767238735686988,-0.015178901776380371
-0.026769961550598964,-0.0009229986517311772,-0.018489268768462352
-0.026123823772650212,0.0009650327683630167,-0.02152719025616534
-0.026219897335977294,0.001296425580221694,-0.024624861907796003
-0.025369248760398477,0.002007940338444314,-0.02609068360470701
-0.02374886389588937,0.0034319493806833634,-0.026748048185254447
-0.02256990956084337,0.005263862476567738,-0.027501464501256123
-0.02338635385967791,0.00703776322552585,-0.028642531106015667
-0.025003528207889758,0.007439188721036771,-0.02994394708366599
-0.025634639314375818,0.005517926638276549,-0.031501131161348894
-0.02443907033011783,0.001498553501733113,-0.03295942588010803
-0.02299979496456217,-0.001523504010947363,-0.03390905476408079
-0.02273088466608897,-0.00154738734181592,-0.03409400233067572
-0.023715803763479926,-0.0024400533220614307,-0.034263455745531246
-0.02389049950579647,-0.004216859451844357,-0.032733343687141314
-0.02335195313207805,-0.0057483748605591245,-0.030090408472460695
-0.0226849879254587,-0.006012399808241753,-0.029492302928701974
-0.022529262423631735,-0.005199566658120602,-0.030308405257528648
-0.023860035071265884,-0.004693150003731716,-0.030700088245794177
-0.025072378775803372,-0.00527597012478509,-0.028602829843293875
-0.024897675757529214,-0.006196140020620078,-0.025568973796907812
-0.024427070457022637,-0.006930415565875592,-0.023934602722874843
-0.023791782950866036,-0.00744652379580657,-0.024478336854372174
-0.022626432837569155,-0.007269021352840355,-0.025573546736268327
-0.02248826604045462,-0.007364518751273863,-0.025032120902324095
-0.023504477212554775,-0.009282005521527026,-0.0226220963668311
-0.023852444428484887,-0.01045100998453563,-0.0211985989153618
-0.02564947681094054,-0.011074667781940661,-0.0201959082914982
-0.026807996619027108,-0.012127698937547393,-0.019586846974561922
-0.026240904844598845,-0.013658866919286083,-0.018977478248416446
-0.026215193429379724,-0.014220441698853392,-0.01679579509072937
-0.025534905944368802,-0.012654326383199077,-0.015195375453913584
-0.023522636183770373,-0.009378440154250711,-0.01665886702539865
-0.021692267182515934,-0.007265959084179485,-0.0176962621480925
-0.02202176801802125,-0.0068722752075700555,-0.017026401110342704
-0.02297656646987889,-0.006371240942826262,-0.016533049347344786
-0.022450574761023745,-0.006769073479517829,-0.017721939002512954
-0.023250850063050166,-0.006585053142771358,-0.01812777918530628
-0.02634521842992399,-0.004860621629632078,-0.01694511593086645
-0.026619441996444948,-0.004639316557586426,-0.01634126056160312
-0.025530176571919583,-0.0012617247193702497,-0.017286847651121207
-0.025013228878378868,0.0011709516911651008,-0.019531322323018685
-0.026522697226027958,0.001129367319663288,-0.020301731638028286
-0.027489739295560867,0.0010034651722889976,-0.020317729649832472
-0.027093950848211534,0.001159274347628525,-0.02089619738399051
-0.0256663333857432,0.001339087134510919,-0.022353200620273128
-0.025101018763962202,0.0016436372334283078,-0.022790236471337266
-0.026188026822637767,0.002288855739607243,-0.02333498196094297
-0.026930081730824895,0.0030171543130563805,-0.02390911686234176
-0.02607651549624279,0.003731194738065824,-0.02400832818238996
-0.024799448510748334,0.003567806970750098,-0.025036721126525663
-0.02419638076389674,0.0019096567029919242,-0.02631369534356054
-0.026397970941616222,0.0003719285075476364,-0.0262234916590387
-0.02807780765579082,0.001240827259607613,-0.02747069811448455
-0.02816991946019698,0.0017287302398472093,-0.028363505407469347
-0.027632879209704697,0.0008238108648583875,-0.02854285412468016
-0.02835116356436629,-0.00038369199728549575,-0.029423690648400225
-0.027428375688032247,-0.0013220318351159221,-0.03041979107365478
-0.025117862605839036,-0.00249018739850726,-0.03071344326599501
-0.024276829208247364,-0.003678060693346197,-0.03146228482364677
-0.024745599148445763,-0.005663605406880379,-0.031951654818840325
-0.02584715184639208,-0.008672047442814801,-0.030952385714044794
-0.026432328013470396,-0.010604044291540049,-0.028854088668595068
-0.026248277208651416,-0.010916678547800984,-0.02765384124359116
-0.025706343876663595,-0.012142008927185088,-0.025823013857007027
-0.02502427923900541,-0.013768490134680178,-0.02400456287432462
-0.024301443772856146,-0.01380216872348683,-0.021523883333429694
-0.023693553885095753,-0.012115712706872728,-0.019483182768453844
-0.021702257072320208,-0.01157189308287343,-0.017631571608944796
-0.021423731595859863,-0.012860427887062542,-0.017468188161728904
-0.021520379959838465,-0.01222013270307798,-0.016881205738172866
-0.021622701751766726,-0.009487158422416542,-0.015773075574543327
-0.02267271702294238,-0.007535779332101811,-0.014340042980620638
-0.023934495402500033,-0.007223799457278801,-0.012665638678299729
-0.02399551340204198,-0.007434168765030336,-0.011701374205586035
-0.022975415049586445,-0.006321615273918724,-0.011078893294325098
-0.021968762666801922,-0.00354935309587745,-0.012686963600572199
-0.021828060198458843,-0.0024294190552609507,-0.015320576494559646
-0.021812773411511444,-0.0018623991309141275,-0.016584295735810883
-0.023375787350232713,0.0005841567372044665,-0.016290456187562086
-0.024518709324183874,0.0031167858196567977,-0.016786276319180615
-0.02427670369797852,0.00428864359491854,-0.018647097022039816
-0.022102120055933483,0.006469607342296513,-0.02115400457114447
-0.020760891857207753,0.006882069556013448,-0.021986026695230976
-0.019967559637734666,0.006212897005752893,-0.02334016426175367
-0.01963380054803565,0.007012834430497605,-0.025464136342634447
-0.01980385059141554,0.007798183105478529,-0.029288763471413404
-0.019282308130641468,0.0059296394283592235,-0.0337049386871513
-0.0193166433746228,0.003925711553165456,-0.035082772228633985
-0.021944826585240662,0.004693620667239884,-0.03455813930486329
-0.02266284718643874,0.00632178262094385,-0.034979471820406616
-0.022501679268316366,0.006390986527549103,-0.035391167330089957
-0.021658583136741072,0.0032019440823205514,-0.034747619793051854
-0.02030924952123314,0.00040275944002132746,-0.03471718810033053
-0.020434092220966704,-0.0008823914185995818,-0.03406641189940274
-0.021628984541166574,-0.0014031909358891426,-0.03176477912347764
-0.023824286472517997,-0.0023725453957013087,-0.03081581598962657
-0.024884944650693797,-0.0024883984224288724,-0.03061780080315657
-0.023783435608493164,-0.0022125082068669144,-0.028913544156239368
-0.021879366613575257,-0.003990602635894902,-0.026913830879493617
-0.02095086529152468,-0.006783804110455094,-0.02588831375760492
-0.02159316136385314,-0.008786872967903037,-0.025902412744471803
-0.022237723896978423,-0.00897950212674914,-0.02589468567748554
-0.02232278711744584,-0.008355043064511847,-0.02421209319436457
-0.02232510996691417,-0.0088134274847107,-0.022494365111924708
-0.022966672986513004,-0.011157215340062976,-0.022643998818239197
-0.022677095330436714,-0.014311843187897466,-0.02230992504337337
-0.023137612515711226,-0.0159316787176067,-0.02181775744247716
-0.024587803636677563,-0.0172039963217685,-0.02213261541328393
-0.025502102289465256,-0.017328931789961644,-0.024055289031821303
-0.02418051371932961,-0.016164874978130683,-0.025460734832449816
-0.02160315307264682,-0.014799593373027164,-0.024326733182533644
-0.019912298739654943,-0.012302771210670471,-0.023012176825432107
-0.019187094949302264,-0.010172894690185785,-0.022842406906420365
-0.019392537069506943,-0.008929722753237002,-0.02320898238394875
-0.02034030512731988,-0.007389062830043258,-0.023563516151625663
-0.02091099122480955,-0.0053138337534619495,-0.023800119379302487
-0.02154601679649204,-0.0037316458474379033,-0.024258793928311206
-0.022897420421941206,-0.002589152018117602,-0.024652143110870384
-0.023996371965040453,-0.0031898384804662783,-0.02450339525239542
-0.024714281607884914,-0.0034361087273282465,-0.024688139092177153
-0.02522187241993379,-0.0022321819415083155,-0.024814404241624288
-0.02547999429225456,-0.001581293645358528,-0.024602559278719127
-0.025539693524478935,-0.0009576500588082126,-0.025029290554812178
-0.02614297773106955,0.0027823925847769715,-0.027305486582918093
-0.026052282919408754,0.006725342700519832,-0.027623418645816855
-0.02551075340306852,0.009092485925066285,-0.026602312573231757
-0.0241533198277466,0.009506031346973032,-0.027806941943708807
-0.022775529942009598,0.007894722330092918,-0.03037649003090337
-0.022984269890002906,0.006223921900527785,-0.03208746784366667
-0.023848353521316312,0.006147472504380858,-0.03294130874564871
-0.02518918518035207,0.005022267487220233,-0.034552303986856714
-0.025995330361183733,0.0032530904263694538,-0.036359717341838405
-0.02497286186553538,0.0014664888112747576,-0.03580528209568001
-0.023987220629351214,0.00026043187517643673,-0.03257239222875796
-0.0236770083574811,0.0013452440725814085,-0.03127774834865704
-0.02274027792736888,0.0027643234261631733,-0.03186228423146531
-0.021929577997070737,0.0016293263342959108,-0.03216780169168487
-0.022232190531212837,-0.001256943278349354,-0.029834149245289154
-0.023225991753861308,-0.004622581855073804,-0.027542340831132606
-0.023670527298236266,-0.007847226697776932,-0.026657986381906085
-0.023452474124496803,-0.00931707563722739,-0.026241054001729935
-0.0228639182751067,-0.010038602340500802,-0.026307961888960563
-0.021615027435473166,-0.01101931502489606,-0.02582670458650682
-0.021033507437095977,-0.013241339729574975,-0.02411861532891635
-0.022062204152462073,-0.015148422789934557,-0.022432230252888985
-0.023499871531384997,-0.016278287148452364,-0.021826546799275093
-0.02316359314136207,-0.017361691789119504,-0.02125086211890448
-0.023336153390118852,-0.018293147149961442,-0.020212210074532777
-0.024632317945361137,-0.01777789293555543,-0.018258117052027956
-0.02568086165410932,-0.015057155906106345,-0.016661117115290835
-0.0256810053542722,-0.012431134564394597,-0.016189493180718273
-0.02568086529208813,-0.011655322850856464,-0.01706596049189102
-0.025507648388156667,-0.011403204553062096,-0.017447222489863634
-0.025543238734826446,-0.009492577191849705,-0.015905201507848687
-0.02501265043974854,-0.006942221716599306,-0.014710381037730258
-0.024424467483186163,-0.0053422277233039495,-0.016217452866840176
-0.024066786863841116,-0.004353544682089705,-0.019917069948860444
-0.023703352781012654,-0.004195003384666052,-0.022736201572115533
-0.023345639419858344,-0.0038754874367441516,-0.0226703687076224
-0.023657075871597044,-0.0003724668715676671,-0.020624529497581534
-0.023670152586419135,0.0034836496070056455,-0.020003693862236105
-0.02515542109904345,0.004779141818289645,-0.022024953068466857
-0.02563878115324769,0.006478448540292447,-0.024354005290661007
-0.024558770746807568,0.008000057277968153,-0.02663176928763278
-0.02374166615481954,0.007011004072410287,-0.026576648451737128
-0.023908160073915496,0.0062893091126170475,-0.025120709324255586
-0.02345209759369027,0.00610125835009967,-0.024781600586720742
-0.02235656756965909,0.005451890501717571,-0.02648626104928553
-0.021641542844008654,0.004969206202076748,-0.029476046620402485
-0.022127780539449304,0.0034357460663159145,-0.03168664261465892
-0.022332813387038186,0.0011676867188725737,-0.03234201358282007
-0.02169600520574022,0.000525832717812591,-0.032088304578792304
-0.022661977709503844,-0.0004967246809428616,-0.03172074866597541
-0.023994623916223645,-0.0032468662993778707,-0.03074806954828091
-0.024010225388337858,-0.003980062047048705,-0.031192641472443938
-0.024068986022030003,-0.0035438838494883385,-0.0323615204251837
-0.02444414894853253,-0.0028744143492076546,-0.03359192123753019
-0.024542534447391517,-0.0028883675895485794,-0.033832810004241765
-0.02412306457699742,-0.0047132766667346004,-0.03265272607677616
-0.023567024982185103,-0.0070762298491899855,-0.03138390457024798
-0.023536595108453184,-0.00749384707887657,-0.031243034754879773
-0.023882477762526833,-0.007995964551810175,-0.03094947533099912
-0.024257658878923394,-0.010253014806949068,-0.02699337710510008
-0.025284702132921666,-0.012137824342062231,-0.022819060177425854
-0.026414474632474594,-0.014057400221645366,-0.02259434768348001
-0.025386760171386413,-0.0145929279824486,-0.023956514269229956
-0.025031642508110963,-0.014618914974562358,-0.022914973669685423
-0.025581954105291516,-0.015237092156894505,-0.020542887796182185
-0.026094872737303376,-0.01627696110517718,-0.0181715986400377
-0.025418961740797386,-0.016112442608573474,-0.017972772184293717
-0.024510598450433463,-0.014938233107386623,-0.018962402464239858
-0.024098975700326264,-0.013329249668458942,-0.018835322407539934
-0.024166736693587154,-0.01227515076607233,-0.01846598752308637
-0.02461338044668082,-0.01028702718031127,-0.01829992834245786
-0.023687507564318366,-0.008172583875420969,-0.01829120265028905
-0.022048794562579133,-0.006969910828047432,-0.018535196431912482
-0.021655792806996033,-0.006317673978628591,-0.01888748556666542
-0.02179172406613361,-0.005930738097958965,-0.01925633114296943
-0.022443207853939384,-0.004320853804529179,-0.02022772969212383
-0.02466356090735644,-0.0018562118384579662,-0.021654162992490456
-0.02602136373752728,0.0003923343570022553,-0.023050131858326495
-0.02586333721410483,0.003474145614745794,-0.02381401282036677
-0.02475709879945498,0.0054696847655577585,-0.02362589475524146
-0.023829714336898178,0.006815030701545766,-0.02384968684054911
-0.023282240363187157,0.0083906716099591,-0.02578219209681265
-0.021726380509790033,0.009669578503235243,-0.02918382961070165
-0.021938416466582566,0.009812841199163813,-0.03174113589921035
-0.023517370209447108,0.00889673174242489,-0.031408890208695084
-0.025121251383097842,0.008344325578946155,-0.030376255381270312
-0.02567882984294556,0.006483738161477959,-0.030837127269478515
-0.024729584765736945,0.003970575562561862,-0.03213825766579248
-0.022272073692874983,0.0035160603601980256,-0.03240184742026031
-0.021341453248169273,0.0035335947359271813,-0.032066025596577674
-0.023038370272843167,0.002859821961465059,-0.030281804356491193
-0.02445096106384881,0.0030266960493463557,-0.027506976039148867
-0.0255263894359814,0.0015857150401643594,-0.029194285161793232
-0.026527641239226796,0.000829472071472992,-0.03168743569403887
-0.027020454581361264,-0.0006122101581240713,-0.03183980152243748
-0.026277850338374265,-0.002395515139141935,-0.029292627004906535
-0.024129252778948285,-0.005623145625577308,-0.026327394152758643
-0.023090375179890543,-0.00967179767030757,-0.023820064598112367
-0.024003120415727608,-0.0125099822980701,-0.02299461812071968
-0.024627095626783557,-0.014555061170540284,-0.022996051484369673
-0.024540646336390637,-0.01627863457542844,-0.02299465995747596
-0.02393918293819297,-0.01718799649097491,-0.02185683297284413
-0.023829901692806743,-0.018527327483752742,-0.019171588064637035
-0.0241735833697021,-0.018300966985407285,-0.01862777025962714
-0.023306442017201334,-0.016754800526541658,-0.01893194166768808
-0.02292205681442283,-0.014103040484769735,-0.01814110146369785
-0.02260369547002483,-0.013086482795188203,-0.01576800423208624
-0.023092798073776066,-0.013147481695341412,-0.01343487292615464
-0.0234559101954801,-0.013068407497485168,-0.01324772438238142
-0.022848107619211078,-0.011945745427510701,-0.016566040358156897
-0.021822654161951505,-0.00986454870144371,-0.01967667594726663
-0.022313446606858633,-0.007712505976087414,-0.020145162125118077
-0.023999811674002558,-0.006540829872392351,-0.019030490875593387
-0.024797525838948786,-0.006631851647398435,-0.01887295366032049
-0.023888716896180995,-0.006300123004621128,-0.019518396584317088
-0.022028787498129532,-0.005768550636275904,-0.02022783701249864
-0.02133511043211911,-0.004252688540873351,-0.01967287971638143
-0.021998346710461192,-0.0006793455895603984,-0.020879449948552065
-0.02243639755761251,0.0039303727135120425,-0.023112808776204474
-0.023512560801464133,0.004472335604077671,-0.024364688215428032
-0.024383081836276688,0.004194766916043591,-0.026974075808539055
-0.024448334443150088,0.005089240858069388,-0.030143779440550134
-0.024885122911655344,0.007285257197509054,-0.030244305889937095
-0.026160661946050823,0.0069275006353564095,-0.02862762448785361
-0.026876776246353984,0.004756220278068213,-0.02802092240017373
-0.026599871489452198,0.0036532323974824976,-0.02711810520850122
-0.02658973608049564,0.0035212722195865354,-0.027871219572261907
-0.026036375857074745,0.002748315864664619,-0.030832725315121934
-0.02485168442944996,0.0008031189508983516,-0.0322789310303051
-0.02405166560492944,-0.0019728449842659757,-0.03021914017153904
-0.023000186047283933,-0.00252579161497124,-0.026702447939896956
-0.021746094716945663,-0.0029430789254547562,-0.02391238922427874
-0.020990190023439936,-0.00462194384454051,-0.02303309338458348
-0.022389958758139983,-0.007296749572560657,-0.02404751103313174
-0.023787739337421954,-0.007937674126878846,-0.022936257664696313
-0.022983325834502466,-0.007147073574742535,-0.020955063519068062
-0.021304696929291822,-0.008024189810384996,-0.02109994602506049
-0.020815012248931453,-0.010435484909976367,-0.021816733351442963
-0.021777459551231004,-0.01238407912751427,-0.021403095161076635
-0.023212662199512124,-0.013472611499310005,-0.02007969669648446
-0.024166665753000416,-0.015135802641452756,-0.019151151718688197
-0.024062432203209028,-0.015603511201334186,-0.019638609956018627
-0.024302044039359316,-0.014427736459765583,-0.01966913441719953
-0.02401484380243346,-0.012968705959792715,-0.017372762158629484
-0.022442351109930314,-0.014341600035550073,-0.016016194422263652
-0.020832045265706256,-0.016273594155791216,-0.017609219867154025
-0.01951934063981753,-0.01597958726051729,-0.017391428627888672
-0.019657321900012903,-0.014166076653054915,-0.016356661944882944
-0.022876140064909123,-0.012262494237802457,-0.01718497514957562
-0.025546731194481254,-0.009680366929387674,-0.01835070361266844
-0.024965864213299938,-0.00692938874635729,-0.018073789760819636
-0.022885913494974375,-0.005775885256298352,-0.01798301309463568
-0.02177896567445714,-0.0056075159591273405,-0.019360953956493177
-0.02306257374584675,-0.004356637873570435,-0.02231562029919587
-0.024451732315355912,-0.0025636643385951174,-0.025167866624542512
-0.024671231585671194,-0.0027445453270047437,-0.025242497940780595
-0.023438202333636582,-0.002862436758732656,-0.02379414036113303
-0.02165216938010417,-0.0006713523816870293,-0.022481621272163466
-0.02134337591996882,0.001699758172435395,-0.024204518922488205
-0.02179821240133606,0.0043444306356832385,-0.02692234374990221
-0.022956835891818628,0.005200788564252434,-0.02874643905670382
-0.023900305677670985,0.005800226517749252,-0.030329938454087824
-0.023298902306123637,0.007954529792186804,-0.031557934562442824
-0.022508516849484295,0.009235480320057832,-0.032828735129442066
-0.023020051230560057,0.008621196684543975,-0.03393349106772803
-0.024060487703536637,0.007961317351146135,-0.033803487895056605
-0.023672480892855674,0.006770760137442267,-0.03274381742812693
-0.022583761165151373,0.0038592497730860487,-0.03238310091546737
-0.022190097297425382,0.0017876964193419553,-0.032951487810350955
-0.02200473318225704,0.001068728465725144,-0.033204883948201314
-0.021668547560693696,0.0014845568330201786,-0.033244661608478054
-0.021327110516722314,0.0013384478734224103,-0.0339851867465768
-0.021690544599550776,0.0008517581591149792,-0.03195070166839287
-0.02217206929344684,-0.0004175448680143745,-0.030835613870294765
-0.023254686311702244,-0.0008489409424328187,-0.030647799576399848
-0.02377825148869306,-0.0012753366718243342,-0.030140492526697926
-0.023537579181720503,-0.0030070873435761314,-0.02918269092333503
-0.024556353309890255,-0.004589317086356459,-0.02706165105337277
-0.02525472518755123,-0.006159075383038726,-0.025512676074868068
-0.02475395922374446,-0.009251647497876547,-0.026590667403070256
-0.024742967070778832,-0.011527521564858034,-0.027614314603852108
-0.024970548111014068,-0.011907592124771327,-0.026115951186511666
-0.02458387825754471,-0.012496567251218949,-0.023986543965293095
-0.023729120584903285,-0.012271398190932814,-0.023646642148378305
-0.023833954401197843,-0.012593874089361634,-0.02168083119613584
-0.024931061489041895,-0.014217984244169202,-0.01963081922440324
-0.02396059426246211,-0.013405947356659453,-0.01999882806558162
-0.023734353817417286,-0.010719363672251347,-0.020884273908450268
-0.023909278752398677,-0.008610658369434532,-0.019975313989561982
-0.023413784219883382,-0.007693070983805228,-0.017904847481986508
-0.022332709704642184,-0.006950224815227557,-0.017828786440077238
-0.02191279418184422,-0.006108111392677529,-0.019569484720705077
-0.022428399461205117,-0.005884757683816133,-0.021260770154185593
-0.02282087370986119,-0.006310477601800812,-0.02252395097457338
-0.023001255613053218,-0.005566428171732696,-0.023760161639074795
-0.024487721020705067,-0.00341915119861369,-0.022756768885301426
-0.02708111423999071,-0.001246091756001988,-0.02221049362560734
-0.026551993869361468,0.0010997563322234782,-0.024392807972617447
-0.02448268605803605,0.003410196768527385,-0.026023755708592944
-0.023829465135349892,0.0053040366765344515,-0.025514187655062415
-0.025393686883035116,0.006186849986988818,-0.02451529144309461
-0.0265663747995859,0.007150156761781545,-0.02562964982644189
-0.027192558263777755,0.007655750778212678,-0.027490204956848174
-0.027122494429931976,0.006547664725076174,-0.028071634005755186
-0.02734677582338918,0.004804795935342554,-0.02723511897784192
-0.02843685433617793,0.0024597111405455507,-0.025922430722857825
-0.029144977816031314,-9.93800952642232e-05,-0.024946206394815817
-0.027910185963264666,-0.0014182305676513352,-0.025121771614067256
-0.02657790173543617,-0.001689038185759273,-0.02692903217393905
-0.02606668567750603,-0.0015255772041200544,-0.027625248549156822
-0.025861740141408518,-0.0035327839214005508,-0.026476753191673197
-0.026684117983677424,-0.005194734967517434,-0.024321938326465897
-0.025305103918071836,-0.004555633950076299,-0.022930311388336122
-0.02469158425810747,-0.004811725375475362,-0.02187723839597311
-0.02499678339518141,-0.005399859219323844,-0.02252562262583524
-0.025009776436490938,-0.0050578773880261,-0.022947288016439416
-0.022916708985576406,-0.006164869773783721,-0.02189152655773796
-0.020863028112216853,-0.008026244358916301,-0.01968191281775944
-0.02066496199404355,-0.010024932635133155,-0.017793588995118625
-0.02067561035801191,-0.011695317880366929,-0.017468433725298382
-0.02093133116432,-0.01237277865584474,-0.01686241739662364
-0.022504042135551572,-0.011422160241636448,-0.0163055447046645
-0.023823193259886466,-0.010402466614323203,-0.016437032172689214
-0.02458880771882832,-0.011419918337196577,-0.016281694115605205
-0.02532780490582809,-0.012559252354549244,-0.015977771909092553
-0.025777299015317112,-0.013026463420828804,-0.015034614989417605
-0.0239447381318314,-0.011300181540718768,-0.013468964425555896
-0.022041280317353085,-0.008641213753435295,-0.012080818123649806
-0.02250528268632479,-0.007737169653410092,-0.011909964996448252
-0.022763186279917136,-0.007934111636132002,-0.014128549992165063
-0.021516876586247236,-0.006649248462053947,-0.0164416924235411
-0.020220693841110915,-0.005286008217808558,-0.017341961211059242
-0.02126489380316343,-0.005325688107404858,-0.017829863281804137
-0.02330620918655768,-0.005211926236370346,-0.018571639884612523
-0.024482522348989733,-0.005163896275917068,-0.019928731489926577
-0.02414537812001072,-0.0051928491302533075,-0.02042137384705711
-0.023297305233427323,-0.003220216058252845,-0.02149309148080647
-0.023927863367134705,0.0002593074555079511,-0.024268540073535405
-0.02401455094513949,0.002504049462004332,-0.027038526241085492
-0.022913118300493807,0.0028409433525666827,-0.029244001780170947
-0.02219778616563417,0.0025066772195714293,-0.030214254366001114
-0.023724414859316312,0.002714502670642105,-0.031065781513461843
-0.025237890440621413,0.0037403108308353694,-0.03168871990055777
-0.024529170332243666,0.00477231151307933,-0.03295281567261554
-0.02295381091244053,0.005005447292205645,-0.03312943226774223
-0.02316649624845013,0.005213908025325509,-0.033226460800506175
-0.023184749807114713,0.003805953383562155,-0.03376194217707962
-0.022479298422695138,0.001970668108697282,-0.033044903830159456
-0.02208943806181196,0.0005095010919831111,-0.03225799082429148
-0.022791744413552806,-0.0007777002224429452,-0.03312494663987309
-0.024200318875955418,-0.0017609211226954358,-0.03550948167685419
-0.024004257284104824,-0.0018381510926701594,-0.035732202377403155
-0.02416165625618305,-0.002585068614280317,-0.03579625627025962
-0.023584461814607494,-0.004277324023860274,-0.03649408245109953
-0.022943528165342286,-0.004704025286628166,-0.03718896914506331
-0.02247710835945327,-0.003358219601068413,-0.03665438634925522
-0.02211016726505477,-0.004754997007694328,-0.03666467819130048
-0.022313057343126275,-0.006811915682192193,-0.035781376936938614
-0.022495765733765438,-0.007787000868120231,-0.03159318657708354
-0.02264879185531754,-0.009779215361049864,-0.028088399631087668
-0.022459958927356638,-0.011549068403837737,-0.02780043359962292
-0.023136257368605584,-0.012146270819357596,-0.02930556183855515
-0.025202103643096052,-0.013299943020683713,-0.028989255952183157
-0.025672907213447616,-0.014303997886599973,-0.026114315915037878
-0.024760251108091325,-0.014905550415278412,-0.021208323232713155
-0.024328057406819426,-0.01543565304018557,-0.016601434253971092
-0.023103753846953623,-0.014210356312105432,-0.015010560673545115
-0.022268648535828106,-0.010899772860284429,-0.015733870895928703
-0.02333847623958718,-0.008902223271434195,-0.016713056538719684
-0.02434518864902202,-0.009335575668956153,-0.016930414858506992
-0.0226533884415403,-0.01059604255715385,-0.016975036487565376
-0.019706401872099377,-0.010460247722221538,-0.01663342845859006
-0.019669963876367547,-0.009907751518767327,-0.01665046511334367
-0.021092873794259503,-0.009700350346975029,-0.017326818124274723
-0.02188575490436051,-0.008345931746589486,-0.01809253080864437
-0.02222607690782752,-0.0053615494834957644,-0.01951221020135563
-0.02301541462657042,-0.0020808261069760192,-0.020952285922248848
-0.02360072176088579,-1.640185409712558e-05,-0.02127592779288534
-0.023354601580649614,0.001935512273121276,-0.02101701647916343
-0.023295253413380124,0.003912482043233467,-0.021861791537958197
-0.022784613975090906,0.0051958131734863855,-0.023983513528946787
-0.02389771179878153,0.005272730504657375,-0.02672668961167801
-0.025196030037477612,0.005877392595721176,-0.028730035410262644
-0.025443639970035292,0.007277521945070475,-0.029460830774041824
-0.024411880076513626,0.008526228157279547,-0.030203505957615562
-0.023806785975466482,0.009238045095116831,-0.029955839636386372
-0.025205716156051494,0.008668182999826968,-0.029099608582328074
-0.026635134418029338,0.007914716661616694,-0.028679463866865262
-0.026331934350309893,0.008185225851775613,-0.029430668291752227
-0.024440847482765093,0.0077498525570263155,-0.030988576327217743
-0.0240134268096881,0.0072590810304973274,-0.03169719275319949
-0.023062828404363245,0.0066067486841348,-0.03108087184955366
-0.020662471797550097,0.003860877768602222,-0.028900090910610743
-0.019315984900458716,0.00038075776842561027,-0.026716606953414157
-0.01982193316507619,-0.0016221300711549702,-0.027229350962443277
-0.02139409480150789,-0.003251198222642415,-0.026188219635514542
-0.023952041374286637,-0.0035857879083778244,-0.025549326892360114
-0.02518539440643508,-0.004423957307153614,-0.02466603291395586
-0.025745262973941863,-0.007276525593624683,-0.023926304493215866
-0.025920469852280803,-0.01034742672345601,-0.02467843660269864
-0.02536290958232712,-0.010929804375336971,-0.02526370190025773
-0.02466520709276665,-0.010785443919303361,-0.023376756871584803
-0.02476291592756752,-0.011294024261587765,-0.022381827875506133
-0.025241724870284088,-0.010585190466372296,-0.02367189335927833
-0.02505789052520413,-0.010861117516469676,-0.022534914023708552
-0.025320625354652293,-0.010420213584438898,-0.019402888938202523
-0.025642100808909163,-0.010089865099871531,-0.018633707441040315
-0.02444402707624249,-0.01047316527547082,-0.018319235095987096
-0.025440418539801612,-0.010990799637511373,-0.01873647670436185
-0.02528178447391838,-0.01009348125080578,-0.018947877833852544
-0.02317315556865651,-0.008346056347363628,-0.01942550989042502
-0.022218415324459784,-0.007546912456746213,-0.022251611881074496
-0.02168569881177973,-0.0073985297603940126,-0.023683540348429233
-0.020790030248463154,-0.0070255705395538826,-0.023650027287658304
-0.021492669475264847,-0.006045862846804084,-0.02378863064222969
-0.022102107323007658,-0.004355264536570758,-0.023818211047910154
-0.02099000266753137,-0.00386516512662638,-0.023200822397484444
-0.02092282011290081,-0.0035711184409592533,-0.022977221306064166
-0.023465983758796938,-0.0022902440832694992,-0.0233229420700809
-0.025172206733259372,-0.0011707689964168821,-0.02364858301007189
-0.024693434170330875,-7.708089100333382e-05,-0.023994376533664763
-0.02480915645719506,0.0010546967814661912,-0.023725591745460406
-0.024793493139441125,3.73761857019872e-05,-0.02451853288221173
-0.02492041494406294,-0.0012505339554991224,-0.026158935725106858
-0.02434882480883971,-0.0014157520809021662,-0.028116766770835966
-0.024327504434040748,-0.0005212765472606407,-0.03039725561393425
-0.024002021746127866,-0.0009441208703719894,-0.03312564149382524
-0.023259874069481157,-0.002301594804521301,-0.0345923617715016
-0.022782545784139074,-0.0033017252007994102,-0.033645410439930856
-0.0224015093408525,-0.004637635356630199,-0.032553776691202074
-0.02315096753591206,-0.005993487775413087,-0.03145728987874463
-0.025404124244232662,-0.005911702373850858,-0.030012490242370404
-0.025051624106708914,-0.0053922899496683385,-0.027477022740640678
-0.025054405341506936,-0.0038581456465180963,-0.027087928174296394
-0.026884363251156174,-0.0039495662349509075,-0.02940564627351705
-0.028102973374188878,-0.006502546966657974,-0.029063206966384314
-0.026046245693578385,-0.009164896255242638,-0.02626399145810865
-0.022761569198337384,-0.011409175385779236,-0.023486674763262272
-0.02227380173280835,-0.012489380424085539,-0.022576181436306797
-0.022646054276265204,-0.013071038665657397,-0.02216040957137011
-0.02220884016423952,-0.014060535249882378,-0.020368810510262847
-0.022648557205684483,-0.014434996955969837,-0.018864291632780805
-0.024119444788084365,-0.014082182133279275,-0.0191183735296363
-0.02436307659081649,-0.014060618013900239,-0.01967732168850489
-0.023781010895618238,-0.013673410649062134,-0.019110670109512284
-0.023961976694408804,-0.01158094710262958,-0.017709960957290605
-0.025355160687468015,-0.008567124496039469,-0.015966565115377307
-0.026499297746340744,-0.007934403583931271,-0.015794877981534228
-0.02406447492830921,-0.008512467502441723,-0.016200559912249446
-0.022306352548184805,-0.008075308869592845,-0.0159280880325241
-0.022390995582100004,-0.007258287496370031,-0.017380958524881862
-0.022907463062438183,-0.005678797606378794,-0.01837922536651604
-0.023385950044030324,-0.0033820676890172763,-0.019221803086111322
-0.022285936211119406,-0.002954414412670303,-0.019289956981083378
-0.022163578250911087,-0.0033290907595073804,-0.01911718209157698
-0.0239255004998995,-0.0012920156677864725,-0.01772829273249954
-0.024691755243111402,0.0017705496020425926,-0.01750234150676988
-0.024111179300234653,0.002249680392196751,-0.019113231246592477
-0.02312694414285943,0.0027711910206562607,-0.020673103790613823
-0.02136648981831968,0.0047923977035679854,-0.02032084194070194
-0.021007637769798748,0.0065952831391769,-0.020769310140167363
-0.021338693841244094,0.008113289368338883,-0.024224935259553604
-0.021728628780692816,0.008619811524113175,-0.027750378649216145
-0.02175659392378293,0.009157578460872173,-0.02886617039621342
-0.020998397303628735,0.010233899047307204,-0.029381635613390245
-0.020833978851442225,0.01077613251254661,-0.029910472221672535
-0.021647243556799367,0.010331169505661819,-0.0324939755955711
-0.022419286324293353,0.009980041795643046,-0.035330336686456576
-0.02288571522512939,0.01011157928587636,-0.036411467590369284
-0.02345073335163761,0.009300119927502237,-0.03517199365887791
-0.023942955522215925,0.00707120989318355,-0.032890919101191685
-0.024556682546972297,0.0045518258957599755,-0.03238583303755149
-0.026548390451353043,0.003261544179622433,-0.031320461857831106
-0.026009260182036087,0.0015200107554846909,-0.03037110946024768
-0.025082905267481692,-0.0016066592252172995,-0.03105890573351644
-0.025883982743835077,-0.003223246267225477,-0.030847244488541037
-0.026383509975858033,-0.005997069820296019,-0.029534157874877565
-0.027008585675503127,-0.008421803613600787,-0.028415704946382903
-0.026233943572151475,-0.00883390021044761,-0.026937121219816618
-0.024606139049865305,-0.00939717938308604,-0.025877548978314735
-0.024697681510588154,-0.01136453192884801,-0.024049595594988205
-0.024798740923870355,-0.01321468243986601,-0.020271880202926695
-0.024686201868462376,-0.014989136616350152,-0.016632606275379658
-0.02354712523811031,-0.016355768821085803,-0.014360422028403264
-0.02249144745292142,-0.017569656847626902,-0.013530837350117508
-0.02290691736561712,-0.01883600270957686,-0.014161671970214229
-0.023330741896643303,-0.01735713885864243,-0.014278997696237639
-0.023362259526038542,-0.01384614733979106,-0.012930529919685796
-0.024680753995198756,-0.011434380212449469,-0.013432177183858585
-0.025818519134190865,-0.011579008969420101,-0.015163458556344267
-0.02476442386978306,-0.011367488696123473,-0.017390164430253208
-0.023822427465347573,-0.010407111403765157,-0.018735418052528985
-0.02385288644290995,-0.008852215614751913,-0.018837537936633453
-0.024967966965050437,-0.007069682851579273,-0.018302849639439955
-0.02569470598245971,-0.006732639121764805,-0.018059272406389937
-0.024930481231422164,-0.006565434887306765,-0.01948955286934506
-0.024283124730573036,-0.005319686351867858,-0.021494744942174293
-0.023767353923176415,-0.0027847811452375026,-0.022242455088417046
-0.022681653717882,-0.0013241869964986108,-0.021191313862800598
-0.023250695448950864,6.272532004913955e-05,-0.020351692000986077
-0.025020501198014244,0.0025133363124041352,-0.020652032617363147
-0.0258530108112609,0.0031660085824114503,-0.020688457880169153
-0.023702490580035374,0.00282820951724716,-0.02166769809264224
-0.021916248442721553,0.002946565700767678,-0.02406448038527742
-0.022585963961319067,0.004352199994173134,-0.025668279704404995
-0.02333322845515795,0.005601742486760486,-0.026380701456218958
-0.023756123482598923,0.004962948423781199,-0.027698648409568705
-0.02373282768530771,0.002556643266871106,-0.028440766982384957
-0.022889264073455706,0.00038030941595934564,-0.027977141144219786
-0.021639381884597242,-0.0005010183485865127,-0.027242051146458834
-0.020712215700768866,-0.0003017613039446587,-0.027030075216316618
-0.02032535121543333,-0.0001650318921520011,-0.027834661523229443
-0.02032530028373003,-0.000913599023988354,-0.029822718715877272
-0.01900653114716988,-0.002616661049614777,-0.030686504032928497
-0.017825721442932263,-0.005595729362539714,-0.03072131221415475
-0.01839004471548833,-0.0071048921199690085,-0.030618684832006693
-0.019440154574112967,-0.005905256330152042,-0.029606053431052715
-0.020478784790611826,-0.005051944299339084,-0.02810295336530544
-0.02277961357322056,-0.007768037903588265,-0.0266405531874625
-0.02432370456517674,-0.011327303582220338,-0.024289589418913238
-0.024272017981274985,-0.013245422451291233,-0.02307992872374598
-0.024434630176983774,-0.014710995856148656,-0.023809181584510952
-0.02574075188022107,-0.015715337212895975,-0.02434271118545439
-0.026457386411493644,-0.014954468497307971,-0.023157284886110574
-0.025362835003761575,-0.01408081516274251,-0.022401329260901548
-0.024139015295077115,-0.013647172636410687,-0.020327948732301593
-0.024015611415961757,-0.012665674148593098,-0.017802818547352217
-0.024323664547409862,-0.010413521522423252,-0.016951695215539075
-0.025894143618643284,-0.008486742444802076,-0.0197770004888298
-0.02614429104141891,-0.007679829650442116,-0.021556390493060462
-0.02491183659003582,-0.008647294635011349,-0.02083159597532358
-0.024443937945761718,-0.009272725947084837,-0.021055217075627297
-0.02422705256321933,-0.007940398063510656,-0.02325413515791297
-0.023915838028187864,-0.005918579063290963,-0.023710746972938068
-0.024540326194255613,-0.0037447775866894517,-0.023845932446420193
-0.025759674826986156,-0.0016660189885442378,-0.025036866645677947
-0.02608579416119028,-0.00016781240219643223,-0.026065856218338013
-0.02476548615959473,0.0009093810717786255,-0.027348492949386127
-0.02380287151027005,0.0013145247521606507,-0.029054241167614236
-0.024249873604276218,0.0029743366667389637,-0.03056957939406857
-0.02370754737057723,0.0060953716456424445,-0.03135730366921052
-0.021595518774120137,0.007884720616857521,-0.031195224437396973
-0.02047089765255805,0.007930235369713046,-0.03067485522478819
-0.0218215227505425,0.008405123480770271,-0.033463205909356475
-0.022760401407140307,0.009147631317318883,-0.035638222470879555
-0.02320355997653678,0.008113999683700968,-0.036979061405872926
-0.024020928321988322,0.005734018486691639,-0.03681930684251711
-0.02457223308738321,0.004206420726404758,-0.03527518856571987
-0.025338051273138262,0.003864190148306079,-0.03485640263534151
-0.02667724220373202,0.0030148930818540975,-0.03444838512223214
-0.02579486863396596,0.002049419663308072,-0.03383765579201281
-0.024249144189525396,0.0021030598418292357,-0.03412767910049297
-0.02487221354385838,0.0019013003793588723,-0.03324564386275597
-0.025151894078589976,0.00029355058472901874,-0.03151398414047435
-0.02351870534766931,-0.003176241079927422,-0.032389430998591706
-0.023943519408931024,-0.006179929187055677,-0.03240656587877311
-0.023274673367268406,-0.008228032129409257,-0.030086366678006016
-0.021987663785694167,-0.010536754416534677,-0.02796091757772956
-0.0228742301260354,-0.011874943993461784,-0.026471836463315412
-0.022942071154830046,-0.01308611172134988,-0.025608511350583285
-0.0224910272663692,-0.014522292076435406,-0.023746792066958733
-0.02350786053284537,-0.015797248124727048,-0.022732965589966625
-0.024356837457162328,-0.016476744349347427,-0.02041381230810657
-0.02431953907944262,-0.016954387319856323,-0.01662184513406828
-0.02336605939490255,-0.017489801393821836,-0.014327759345178492
-0.022293272195383906,-0.01749122930050362,-0.0128388610391994
-0.02202629912062548,-0.016412523109465837,-0.01258819338545436
-0.02293484976689797,-0.015154519132920541,-0.012589211110025644
-0.02231248072348535,-0.014563428521796595,-0.013331095942703541
-0.02140656033589039,-0.013453317478706595,-0.01532565693196375
-0.02252810008940287,-0.011508245734148659,-0.015780527974129654
-0.02331012365175411,-0.007456724688381655,-0.01616520603420213
-0.023463300749426708,-0.00480710741612711,-0.017566722817718983
-0.02364557258260902,-0.0038318307815643493,-0.018126938812201843
-0.02368780769756995,-0.0031955553367879475,-0.01756507481331937
-0.024110122467391193,-0.0023036434413370444,-0.016766496628406458
-0.024527214918634854,-0.0009965144727175357,-0.017775193555280566
-0.024367238438571803,0.00043112999037475674,-0.020700026652775705
-0.024618902898509987,0.0005877934086129244,-0.02295637023053132
-0.024938763090176508,0.0006366468596752384,-0.023331205738941208
-0.02503026553313248,0.002693266424103058,-0.025033432393684052
-0.02532323560444638,0.004522938979789615,-0.02936304736067541
-0.024339387891814113,0.005847217380505754,-0.03278307485743426
-0.02397772914264351,0.007740771252429113,-0.03542747435858473
-0.02372985727561172,0.008679769052832853,-0.03410486169741489
-0.022341062503983267,0.00738930475563393,-0.03243864557589404
-0.022666123186354525,0.005350761966838036,-0.03349688995513134
-0.025055343940039165,0.003410206545595429,-0.03514667696435936
-0.02534805389586836,0.0033785011055442737,-0.034996286558452994
-0.023856466214056127,0.004251930022292072,-0.03473680408205837
-0.02402346217422746,0.002754188699327642,-0.03497561192489229
-0.024811144612613134,0.00047535462499581627,-0.034206303098471835
-0.024896820832509547,-0.00013093550421672262,-0.03241235390305519
-0.02377776945650112,-0.001362230477752746,-0.03145508890156634
-0.024330580345122144,-0.0005434289960248861,-0.029785676815663464
-0.02429605956422165,0.0002541968910918513,-0.027231370040681213
-0.023835100364522077,-0.0022642464045929955,-0.02830985249602236
-0.025140370780718513,-0.006168150321173016,-0.027772679459303617
-0.025480396288912743,-0.008307840289489832,-0.02753149419731926
-0.024152421246981248,-0.009231725925928913,-0.0283651224890491
-0.023785638404660858,-0.011250016541453078,-0.02821930502250325
-0.023647826310480013,-0.012096227692381945,-0.02573890014900826
-0.02424276499368716,-0.012470372894313186,-0.02322121144970879
-0.025076571546378545,-0.013349949767871294,-0.021483581804204732
-0.025834637199295685,-0.013121429219609126,-0.0200370359380031
-0.025738943804753944,-0.01292709021072369,-0.017558972103870474
-0.024273767849081196,-0.014345678209792823,-0.015237068510032259
-0.023980917831067927,-0.015539044397883117,-0.01493974014010746
-0.024525337721570395,-0.01376724958390696,-0.015606054148520343
-0.02337233308935538,-0.010794464287755545,-0.014821441254753154
-0.022033320419723168,-0.009080928066396154,-0.01325927132711513
-0.022841211830382235,-0.008043963134696241,-0.01355810400127666
-0.025457595256739296,-0.0066888073888549116,-0.014797084986639675
-0.025295679733972065,-0.004547248408925952,-0.015400904885609634
-0.02476291047059931,-0.0034642027912923368,-0.01686980976955965
-0.02560700522735715,-0.0031082638543011853,-0.019938774130423553
-0.025970995920943096,-0.0021239559373498196,-0.021612564523820765
-0.025219853341695853,-0.0008466396934636577,-0.02293667057529092
-0.02477620728313923,0.0002453776346555969,-0.025108998670475557
-0.024114124244078994,0.0013167998531571357,-0.025957246180041693
-0.023866936317062937,0.0018143659872293938,-0.026310763132642023
-0.024303968530148268,0.003289624601165997,-0.02716130438784603
-0.02482402305759024,0.004538247139862506,-0.02876936923712492
-0.023862399757490493,0.004451346740097506,-0.030957362469052896
-0.022841202735435218,0.004054666987940436,-0.03329440005472861
-0.02303056317032315,0.004943342901242431,-0.035428034607321024
-0.02390150802966673,0.00465637049273937,-0.036419773095985875
-0.024393515559495427,0.0022910794541530777,-0.036222492781234905
-0.024116085114656016,0.00019178530408225924,-0.03535319774528034
-0.023282964320969768,-0.0012922861287734122,-0.034933866118080914
-0.02258627864648588,-0.0032254570214718115,-0.0347615459759254
-0.022311385691864416,-0.0038713387766620144,-0.03469725197646767
-0.02285649134137202,-0.003459730578470044,-0.035002412914764136
-0.023838840206735767,-0.004078540314367274,-0.035083674447378144
-0.02432570545352064,-0.004808228368347045,-0.03585119702620432
-0.0243256854446372,-0.006214340373844607,-0.0369288245565258
-0.02376235534029547,-0.008782051736488938,-0.03581660712370649
-0.022352220184984617,-0.011826073205156717,-0.031737738027004525
-0.02088433211611118,-0.012100635103706736,-0.02749312079686206
-0.022030590116628446,-0.011289703252259642,-0.02633530857565347
-0.02332075200683903,-0.010509020285098813,-0.026684934709919617
-0.02381794183747843,-0.01100473582482664,-0.026096779038198292
-0.023764470824971795,-0.012698555110546295,-0.0239559212786844
-0.023254026018548757,-0.01399659777234774,-0.020284356651245616
-0.023456996132154018,-0.014040254427527543,-0.017065942301996984
-0.024890094209695235,-0.013192119695304427,-0.014054519851924852
-0.025635730708017945,-0.010330953045922797,-0.012434953532647341
-0.024475109967170283,-0.007206576356111327,-0.012406890164129436
-0.023707021682639606,-0.006231562565517379,-0.012898980457975995
-0.024196348022087477,-0.005991347734379815,-0.012212894034746569
-0.02524651790736243,-0.0044960397644899786,-0.01094302842830075
-0.023895325284684077,-0.004381779945106246,-0.011806357179011684
-0.02209036028943956,-0.005157578016223852,-0.015209563571261242
-0.0228651497309329,-0.004759602688864106,-0.018520813682698645
-0.024424667572020553,-0.004467080998438178,-0.01949610850715544
-0.02451233012834564,-0.004546724539977731,-0.01882605101855006
-0.024109678633976728,-0.0027094279175798874,-0.018103695765603334
-0.023208835045807064,0.0009103894740292162,-0.018176349840359762
-0.021142957848496735,0.003765249175557983,-0.018172308045905083
-0.01981146851903759,0.004753709163196618,-0.01917318149935454
-0.019510034690028988,0.005153970050741918,-0.021461761207319796
-0.020229943402227946,0.0064409864535264205,-0.02244857751065865
-0.02183150536438916,0.00822296988189919,-0.02215076528955251
-0.022211797841009684,0.007148988970584469,-0.024532653696951456
-0.020974086510250345,0.006158661562949419,-0.027216037778998725
-0.020981931811547838,0.005840770427312236,-0.028665628633461893
-0.021865766029804945,0.0056545422921772115,-0.029605253075715154
-0.022431644538301043,0.005789747774542775,-0.02894580211432185
-0.022823909603175707,0.0059094609241583385,-0.027674303055391647
-0.022806258130003698,0.00450299148724298,-0.027721995138563216
-0.022477121092379093,0.002133652287739096,-0.028857150027761236
-0.02275396400364116,-0.00038264522572717397,-0.02798521200020332
-0.024497790946043096,-0.0019236467778682709,-0.027351630706107244
-0.02499701986380387,-0.0021782723251817515,-0.027775828129961155
-0.024427619791822508,-0.0027801488613476977,-0.025924846340785734
-0.023840746507630683,-0.005588320618699072,-0.024070786821539514
-0.023803744625183754,-0.008808659003989305,-0.0243432295974344
-0.022651696781395003,-0.011069068023061845,-0.024568407752667554
-0.022977093976805918,-0.01276480543310754,-0.023230564693221822
-0.024586010113125667,-0.01486571545683546,-0.0208923447644338
-0.025076718884520233,-0.016732046788092703,-0.019465658624540083
-0.0240204044530401,-0.016948795746429823,-0.019209144738852046
-0.022857828298583627,-0.016473828509333543,-0.018732913304120302
-0.021571544493781403,-0.015570416508126073,-0.01766991408658214
-0.020253201000741683,-0.015383011486846954,-0.017492069673608057
-0.02050204057013616,-0.015203572729660664,-0.01739615254336968
-0.02108489570673555,-0.013418967682810035,-0.016630603568046354
-0.02113828122674022,-0.010638384992489591,-0.01631271152291447
-0.021933548850938678,-0.010083947927341796,-0.017513249986222945
-0.023317887098528445,-0.01157489896286279,-0.018638160327100195
-0.02336888064746745,-0.011390153304091655,-0.01944780524354428
-0.023578291802550666,-0.008601558874943294,-0.019462138880044222
-0.02317871621926315,-0.006884918548166752,-0.02066745946649462
-0.023147769752540626,-0.0065815529524115846,-0.021651452698279172
-0.022992790036369115,-0.005755665370088536,-0.020372004655655473
-0.02264495014969725,-0.005237458481133217,-0.019498933397699147
-0.022934282242204063,-0.003918872607755475,-0.02059381949948147
-0.023148753825807944,-0.0019267067727923859,-0.022820318918093108
-0.023177544790087268,-0.0007327134312618,-0.023490836611017585
-0.02352040792175103,-0.0002514702543976455,-0.023259288354893215
-0.024635337467771024,0.0003732170625880826,-0.024380360628128983
-0.026166935640503652,0.0019948959106841357,-0.02557791412982624
-0.027656849852064624,0.003791621338677942,-0.026959376555169
-0.026259573132847436,0.0060710553952958435,-0.02873448102036491
-0.024054526875261217,0.0067696551013796125,-0.02930786467914004
-0.024600829419796355,0.005692920694855275,-0.029036464184173383
-0.026337418603361584,0.004779632945428602,-0.030215620427043177
-0.027791083994088694,0.004868231371801812,-0.03167752220178954
-0.027637130187940784,0.005399465408117976,-0.03079704038100317
-0.0260438428085763,0.003919161372323288,-0.02875436985050328
-0.02502382812963333,0.0014001701629240415,-0.028056065275450237
-0.025100585844484158,0.00040054629835140076,-0.0300613246508874
-0.023662450985284522,-1.9616315682924323e-05,-0.03139705222565681
-0.022717507818015292,-0.0017264493408220005,-0.031434417905984446
-0.023530972612206824,-0.0038969328670646064,-0.0303818924294319
-0.023343232896877453,-0.0054341376198863145,-0.028670816391240805
-0.02167212005588226,-0.006546988515765406,-0.02735266571107786
-0.0212740087590646,-0.006266651325859129,-0.025855531930574216
-0.02104982741002459,-0.0049721402319846675,-0.023464608602807857
-0.021705471226596273,-0.006237448815227253,-0.022257547243498266
-0.023723692720523104,-0.00937211461859988,-0.021783020201837644
-0.024743223548284732,-0.011154121239087544,-0.020953608327545226
-0.023465883714379743,-0.011213121979380958,-0.019262506611994468
-0.022392398022930138,-0.010653078788891435,-0.016754607713664882
-0.023203352611744776,-0.01077518300007796,-0.015205214367597364
-0.023649590730201453,-0.010907897376455367,-0.015392357454402372
-0.024550556190661155,-0.008931319825933315,-0.015602894563926384
-0.025235663997591473,-0.006582592504855711,-0.014936024854250718
-0.025063896828214638,-0.0062127755882102065,-0.015504458133364096
-0.02467079320922494,-0.0063690472416055854,-0.017553482393850572
-0.024033004592638463,-0.006337904324027477,-0.016945114111877047
-0.024541677703382447,-0.005167676135897636,-0.016879908798728138
-0.02633418444020208,-0.004681473456003005,-0.017836060578702018
-0.02604218025226146,-0.0035601819945441093,-0.019104247257928364
-0.025805571567616425,-0.001737657612466137,-0.020527168089756742
-0.025662549887783825,0.0013891128674003994,-0.022267273379839025
-0.0250305329245748,0.004076729510416044,-0.02372362905589398
-0.024827715606079437,0.005497274742083391,-0.0243409194808919
-0.024960814698715694,0.005982876245980151,-0.02401960409770254
-0.025701721824589185,0.00568696259506396,-0.024425016817986034
-0.02603181746962946,0.0050208327593281865,-0.02675319410627708
-0.025859148081508465,0.006003427188261412,-0.028505572117865086
-0.025708512112032622,0.007765428563288879,-0.030246905225794762
-0.024662967916810885,0.006383108029694995,-0.03055681736441329
-0.023941687686601654,0.002955925083369948,-0.029908824217272922
-0.022836826246930286,0.0019592819171521114,-0.030557788704754785
-0.02177812893933151,0.0011276114264546777,-0.03158568870276213
-0.020871721062576398,-0.0012360395658106427,-0.03173022560076788
-0.02090396264975425,-0.0020554143702611327,-0.03184062006766908
-0.021899712010053918,-0.0018494896494303248,-0.032214131351793185
-0.023017142666503787,-0.002363266503380146,-0.032561769330641255
-0.02411290188319981,-0.003847288098768331,-0.03313336128485389
-0.024796816433081403,-0.0056443486755597405,-0.0347332788805943
-0.023468403014703654,-0.005719383807445411,-0.03567256862879731
-0.02273045902256854,-0.004443826128408546,-0.033973159588640556
-0.024137210857588798,-0.005387019882618915,-0.032234995160251856
-0.025156561605399475,-0.007150914825615473,-0.03333973290864378
-0.02428174229862634,-0.008305134542752057,-0.03332761843921617
-0.02300724372616969,-0.01075123691407498,-0.030825882276985794
-0.023107357264962047,-0.013779635082755703,-0.028738129913108423
-0.023676735509070568,-0.014732180716237053,-0.02674728057172615
-0.023601109205628745,-0.01527331187389791,-0.024406661395914853
-0.023440856239176355,-0.015881982108112425,-0.02206605495302938
-0.023482156393583864,-0.017086120351450518,-0.02000423046411015
-0.02404794213362038,-0.018331180399400182,-0.02011123433476314
-0.02453928937029559,-0.017789721823646687,-0.02107630825776141
-0.02444820165692363,-0.015169225662248209,-0.02119009877787903
-0.023677959688939154,-0.012573844287544489,-0.021287840354489163
-0.02307983231730759,-0.011086567610618658,-0.021593225028482266
-0.021747608116129413,-0.010289502824889496,-0.02166191734431777
-0.021991638277540915,-0.00956940039031906,-0.02181037052650936
-0.024690458303666674,-0.008320995220856275,-0.021712772650062107
-0.027170992325409316,-0.007311774425033946,-0.02231094185844995
-0.026574321964289993,-0.0067339833549340256,-0.02218833105871454
-0.02462148040649481,-0.005567321750277188,-0.021542091417359188
-0.02359897189307958,-0.003040666342712939,-0.02182407843065448
-0.024173517886083573,-0.0003769801821817964,-0.022943491785554215
-0.025436305804760195,0.0017050115275196731,-0.023864084141678177
-0.025062981876544654,0.003707677706188406,-0.024622517230454832
-0.023829732526792213,0.005200856776355067,-0.025077706595766358
-0.023381246137432754,0.005787755526398541,-0.026031506422441453
-0.024414248400717042,0.0068277440732344985,-0.02636724093463272
-0.024386485165450722,0.007796040335961152,-0.02633746771607548
-0.022556656404049136,0.008371071089641191,-0.028459762688726187
-0.02033483178820461,0.007856482625356875,-0.030719518690602854
-0.020743023924296722,0.006695209322060691,-0.03114060018560849
-0.021539297449635342,0.004807120603800286,-0.029750803150818683
-0.02071237213385757,0.002544006747484673,-0.026696450731833465
-0.020541934645734727,0.0011791502174673951,-0.02571994627942331
-0.022184485715115443,0.0008983459451883391,-0.026137618988286704
-0.02260469045722857,-0.0004575926766392513,-0.02577892882982269
-0.021587344235740602,-0.0027222624794376316,-0.023540724214399233
-0.021475769244716503,-0.004952334165864158,-0.022410988094634376
-0.020936357032041997,-0.006535751708725002,-0.02403934377070982
-0.019613991753431037,-0.007268381978065008,-0.025959336198866367
-0.021284604372340254,-0.007105177701305365,-0.026085936042363755
-0.02399251206952613,-0.0065797826209745836,-0.0241399829974398
-0.02365939690207597,-0.006549894806084922,-0.022677382730762474
-0.02277010935358703,-0.00843686120788334,-0.02287723691551946
-0.024035965907387435,-0.011493588317534886,-0.021552399630309083
-0.024204484361689538,-0.013253832548798528,-0.020903580661979504
-0.02365344153076876,-0.014783158803766128,-0.021435855160234496
-0.02355612741666846,-0.014863660908304155,-0.02157020389859099
-0.02361546467000153,-0.013006950212002266,-0.02039083483396098
-0.024188148017856292,-0.013114889952703379,-0.018427599570713937
-0.02353345371375326,-0.015026221262814943,-0.017384611055604182
-0.022226378860068507,-0.014994057892181445,-0.01737875754770357
-0.020693363694590516,-0.013614371709991246,-0.017397143892594613
-0.020591745851561427,-0.012438157682481688,-0.01699485619610641
-0.02301423046446871,-0.009877677257463802,-0.018161745174438693
-0.02624559056130238,-0.007303220627363771,-0.01876254282251466
-0.026482979592401534,-0.0062533736127079464,-0.01988177973544225
-0.02576459155534394,-0.007170770459197229,-0.021520441805478185
-0.026526640795054846,-0.006706713065796066,-0.022501848434330896
-0.02749817940639332,-0.00530334318682435,-0.025255398213630542
-0.02768615559034515,-0.002869137006200617,-0.0270998843916459
-0.026961077310261317,-0.00021274561845530116,-0.027102882086182944
-0.02618194412207231,0.0020497632249316666,-0.02704437247302849
-0.025933155484381132,0.0037744066503364593,-0.027467494874144904
-0.025313145670224912,0.004880792857875349,-0.028725844458676875
-0.02490033148205839,0.004507911398832221,-0.03000981087097898
-0.024703042072360404,0.0026240525130560854,-0.030141942261252552
-0.0239700293604983,0.0027590222089202143,-0.02973827940877527
-0.023669304937357083,0.005014911948819645,-0.030658888135803863
-0.02401090932835359,0.005718386546504917,-0.028358826966723427
-0.02540563582442701,0.005002000307285925,-0.02543957634770777
-0.026313082344131544,0.004660095783037832,-0.026576488380669616
-0.02634172597026918,0.004058068498125067,-0.02845800008799415
-0.027879688786924817,0.003181732154189376,-0.029854465537937358
-0.029066079150652513,0.0037598315429931972,-0.029528309823945165
-0.029270015147631057,0.004059520961163798,-0.02877432052628137
-0.027136113203596324,0.002808744056892465,-0.029417082259897143
-0.024299544747918844,0.0002727340984165494,-0.03002383527928032
-0.023323913410422392,-0.002189833821830689,-0.029954671845189296
-0.023090458853403106,-0.005071749910712242,-0.029112976335454732
-0.02271528501296416,-0.008342812179762404,-0.027935822799918242
-0.023557893655379303,-0.009184623195324093,-0.026187106413999572
-0.024951052182586864,-0.008597416126576718,-0.02474559732945636
-0.024801316612865776,-0.008894933671399485,-0.02329004018974956
-0.023364891603705473,-0.009355276233691256,-0.02251121259178035
-0.022145890397951007,-0.010099695828102995,-0.020825606043217704
-0.020965144358342513,-0.009194314770866185,-0.01914192944241222
-0.019925935703213327,-0.008321472705574706,-0.017666552594164386
-0.020275634597055614,-0.009725927156978287,-0.017142623619292863
-0.02050456896540709,-0.010896032108576037,-0.01865271588030737
-0.01903928568935953,-0.010367101822339464,-0.020287896404624917
-0.018721850210567936,-0.009046611012308858,-0.02073379982903134
-0.02013877201534342,-0.00845569866214646,-0.021183222997933626
-0.020912722902721725,-0.007859163815737702,-0.021950805603410117
-0.02154433423129376,-0.006451155059039593,-0.02288604446221143
-0.02135125942004379,-0.005575360773946159,-0.023289419914362952
-0.022644788259640336,-0.005886890448891791,-0.02435060559946578
-0.024859888071659952,-0.005608771971310489,-0.023260838133865036
-0.024953667889349163,-0.004522640665527433,-0.022428699594456702
-0.024606786610092968,-0.0040148329389921855,-0.022387168428394943
-0.02393549948465079,-0.0017820922266764683,-0.02433534427837003
-0.023375403543468565,0.0014084930626268033,-0.025195276975864545
-0.02481009141774848,0.0022619942683377303,-0.024980130547191948
-0.026030787921627052,0.0018489525928089279,-0.025855899366433732
-0.024888189727789722,0.001695107130217366,-0.027154304916621186
-0.022671965780318715,0.0023059503746480914,-0.028578189812833443
-0.021731126253143884,0.0023810418952052714,-0.03003875826834701
-0.022614731278736144,0.0029071991320961388,-0.03159898187732324
-0.02356479126319755,0.004347871708887396,-0.03234855103073642
-0.023031105229165405,0.005996113486617105,-0.030775408959016204
-0.02298464096384123,0.006782029231544584,-0.02906059307861142
-0.02315455458301585,0.0042752949411806185,-0.0295292520604562
-0.02457097070873715,0.001969388222278212,-0.030612325645051897
-0.025562167138559744,0.0017738831274982658,-0.029110844479873776
-0.02455429421388544,0.0016085938341348083,-0.02848268923116848
-0.023479862647945993,0.0015187963526841486,-0.028424636184354313
-0.02429784944979474,0.0004314307489039493,-0.027956006306339987
-0.025393475880264305,-0.000898390510428726,-0.027300146030029282
-0.0260898577835178,-0.0020498343928920804,-0.026124282157979906
-0.026600286219036207,-0.0021026248759881128,-0.0249687691393774
-0.026155928935622796,-0.002675652467587497,-0.026238692953484133
-0.025172681489493698,-0.004552764039544854,-0.026830319256987423
-0.025770199499675073,-0.005347134901967365,-0.02391566158621572
-0.027034968297812156,-0.00619363254372729,-0.02365507316426374
-0.027167354346602224,-0.008072105629253201,-0.026972071282216348
-0.027060828870162368,-0.010567515346338041,-0.02576243605290074
-0.026993113351636566,-0.013119885807100218,-0.022331136278808117
-0.025178173018503003,-0.014922143236617558,-0.02231678990938235
-0.021944775653537363,-0.0144596533573349,-0.021711966837756336
-0.02214279265899677,-0.014398166968021542,-0.020491554096224718
-0.023240389054990374,-0.016236152077908628,-0.020401887013576925
-0.022448939489549957,-0.016146648704307154,-0.01928349411173258
-0.021921368897892535,-0.013282301551953424,-0.017687210856820457
-0.023360926206805743,-0.010210492291662376,-0.017778305846150033
-0.02532594407966826,-0.008762460311118048,-0.018511447706259787
-0.025692512281239033,-0.007356792139034951,-0.017883316104416735
-0.024381681214435957,-0.005618300292553613,-0.017150467101600952
-0.023440554286935367,-0.003776337507588323,-0.017846323316916823
-0.02161272641387768,-0.001770967628544895,-0.01967603384400718
-0.021475329049280845,-0.000992356604001543,-0.02149549254681915
-0.022150295990286395,-0.0004583692430060182,-0.022458432795247063
-0.022050397092243657,0.002745409801718779,-0.023044929548632354
-0.022291907953331247,0.00694768687026226,-0.02391201996942982
-0.023321535991271958,0.008735833034734242,-0.025225093850167468
-0.02384818253631238,0.007488458777515916,-0.02741464959399309
-0.023901578970253468,0.005654868346027797,-0.028425258278730325
-0.023712458641966805,0.0054240722420217935,-0.027193871574127115
-0.022760805222787894,0.005944076747255167,-0.026161529603996314
-0.02120346289302688,0.00588637703913264,-0.02630632479849737
-0.019900058759958483,0.0046497402763634454,-0.025729295884957537
-0.019632660041679628,0.0018394890730633051,-0.026351151973358355
-0.021092731913086027,0.0005406287186815462,-0.027765090635512024
-0.022808373614680022,0.0007267585147019417,-0.0285791938949842
-0.025007168005686253,-0.00011402500632584633,-0.0275674228760181
-0.025637247745180503,-0.0008404086315749737,-0.026273977709934115
-0.0238482953136554,0.0005673497298630537,-0.0251236924668774
-0.02313998447789345,0.0012760536947098444,-0.02394906186964363
-0.023161426724982448,-0.0009745793931870139,-0.024358740120078437
-0.022199148588697426,-0.004648872163670603,-0.024614904759800993
-0.020540803234325722,-0.006310432581813075,-0.023667391360504553
-0.02046446934400592,-0.0068046815613342915,-0.024074715838651173
-0.02255847539345268,-0.006599205335078295,-0.025429031666135415
-0.025372715754201636,-0.009229996976500843,-0.02598031824163627
-0.02568944910308346,-0.01133842124545481,-0.025371613446623087
-0.02497908462828491,-0.010200713404628914,-0.023560776753583923
-0.024420602130703628,-0.009186896932078525,-0.020484303604462184
-0.024875480448827147,-0.01219840760313673,-0.019102692021988332
-0.024089993530651554,-0.015192250430118293,-0.020095350919291377
-0.023321243133977987,-0.015615689335390925,-0.026106861696462147
-0.023749378669890575,-0.014390832802746445,-0.03417387051740661
-0.02448870327498298,-0.014243603800423443,-0.038084734114818275
-0.024591237888671458,-0.016141739251906984,-0.03806917084148154
-0.024074732209555805,-0.016599440641584806,-0.03565763108781539
-0.024432220016024075,-0.014628603821620345,-0.030644765502074733
-0.02492587191227358,-0.010943143024633173,-0.024348588340217248
-0.02444862730044406,-0.00934826039156178,-0.01928811616380699
-0.02432761357340496,-0.012025984688079916,-0.01552805224491749
-0.024348581064259633,-0.014261225260270294,-0.011091171472799033
-0.022222786355996504,-0.012849141967308242,-0.005301002147461986
-0.020987896277802065,-0.011915531104023103,-0.002184171535191126
-0.02134595524694305,-0.013076818504487164,-0.002477095904396265
-0.023454891561414115,-0.012996092664252501,-0.0035734124139708
-0.025833312975009903,-0.010104398825205863,-0.0030742342005396495
-0.026693736799643375,-0.00472570627607638,0.0005849765898346959
-0.026509034796617925,0.003671677632155479,0.006545902579091489
-0.025961624487536028,0.013780466360913124,0.010453019967826549
-0.02534064515202772,0.020297276932979003,0.008961472303781193
-0.024934955945354886,0.02141182449122425,0.0017731093748807325
-0.02565311297075823,0.01913002233777661,-0.0096090743681998
-0.02689722714421805,0.016254463844234124,-0.02068268076982349
-0.027019203116651624,0.014004920558363665,-0.028112317522754893
-0.02648336703714449,0.012546121070045047,-0.031058010790729895
-0.025343235392938368,0.011021192221960519,-0.030996729037724435
-0.025223358534276485,0.009116113687923644,-0.029212533263489604
-0.02450032116030343,0.00851052209327463,-0.03002246012329124
-0.023948168745846488,0.0076748410720028915,-0.03306395228719339
-0.02403773214609828,0.004367926976556191,-0.03542747799656354
-0.02498275898688007,0.0008807995186543849,-0.03765241854125634
-0.026422969312989153,0.0015718974282208364,-0.038436024624388665
-0.027235684683546424,0.004756021553475875,-0.037807421904290095
-0.027711266739061102,0.005634593435388524,-0.036133929825155064
-0.026954714485327713,0.004243157491146121,-0.03454334364505485
-0.025259607355110347,0.0028557049063238082,-0.034381180739728734
-0.024080438379314728,0.0019163262550137006,-0.03425724571570754
-0.023665084881940857,-0.0025073832148336805,-0.03256612762925215
-0.02243631024612114,-0.008818294190859888,-0.030856816010782495
-0.02179771581722889,-0.012403052096487954,-0.028075910449842922
-0.02247437441837974,-0.01377579064865131,-0.025682955310912803
-0.022069541955715977,-0.016005187717382796,-0.023041482563712634
-0.022780535800848156,-0.017075382857001387,-0.02306098940607626
-0.023295129722100683,-0.01714072459435556,-0.0250848079303978
-0.023837146727601066,-0.015565279682050459,-0.02549208511481993
-0.024996057618409395,-0.013078753909212537,-0.0238251595874317
-0.026793544748215936,-0.012696988960669842,-0.02165223122574389
-0.027735004550777376,-0.012927052921440918,-0.01887922735477332
-0.027587415388552472,-0.012104516827093903,-0.016620801034150645
-0.026489473384572193,-0.01310603602178162,-0.018216904209111817
-0.025702376660774462,-0.015195970263448544,-0.021685877072741278
-0.024260518330265768,-0.013469839359459002,-0.022702997739543207
-0.021858091713511385,-0.009702601346361917,-0.023879627406131476
-0.020755325749632902,-0.0076254673331277445,-0.02605594454507809
-0.02060453152807895,-0.0053208309509500396,-0.02790308826661203
-0.020648954887292348,-0.003972339982283302,-0.028764286980731413
-0.01983707807085011,-0.003526769660311402,-0.029674562028958462
-0.019719916963367723,-0.0035228958950028755,-0.030709648854099214
-0.019712208086275496,-0.0020408929231052753,-0.0313236378133297
-0.01932370832946617,0.00200564272745396,-0.03187868060194887
-0.02019184103119187,0.005105898253532359,-0.0322877531289123
-0.02155975926143583,0.0042784404286067,-0.03318223753012717
-0.021676438336726278,0.0015762726661705528,-0.03425144313951023
-0.021189332983340137,0.0010183564427279634,-0.03472646130830981
-0.02164758370781783,0.0015097886034709518,-0.03473818287602626
-0.021323216060409322,0.0013319603340278263,-0.03465231566224247
-0.021360005121096037,0.001322566049566376,-0.03330107210786082
-0.021657975594280288,0.0019943724964832654,-0.03273439870099537
-0.021944284526398405,0.0007027392712188885,-0.03292493420303799
-0.023530186808784492,-0.0012727774674203829,-0.03377611574251205
-0.025077519239857793,-0.00238426787291246,-0.034405384212732315
-0.02423019213892985,-0.0032011321309255436,-0.03458614446572028
-0.022432988771470264,-0.00352395500158309,-0.03493927579256706
-0.021380044927354902,-0.004417228410602547,-0.03419283530092798
-0.021266490875859745,-0.005859182692802278,-0.030884082661941648
-0.021868356270715594,-0.007982756869751029,-0.027832164050778374
-0.02272622259624768,-0.010030888006440364,-0.028246402507647872
-0.0229961169679882,-0.011206531780771911,-0.027086485715699382
-0.023335025616688654,-0.013117550224706065,-0.023940137907629833
-0.023766742742736824,-0.014082505003898405,-0.02233070699730888
-0.02434139241813682,-0.015329502275562845,-0.021821924747200683
-0.02337535988772288,-0.015875795725150965,-0.019131939552607946
-0.022203543267096393,-0.01660933230596129,-0.017503129129181616
-0.02125473656633403,-0.015943747712299228,-0.016889875041670166
-0.020474459233810194,-0.014288326383393724,-0.01570876884215977
-0.020412704543559812,-0.013138002941559535,-0.0158587317855563
-0.02173060602217447,-0.01117090414481936,-0.017598251361050643
-0.023797871108399704,-0.008125626663968433,-0.019482517018332146
-0.024329094230779447,-0.005648159458360169,-0.019836243154713884
-0.02235363172076177,-0.005492697709996719,-0.017392851077602245
-0.02166290141758509,-0.006154557013360318,-0.015079877812240738
-0.0235059269471094,-0.006216313977347454,-0.015615711163263768
-0.02359710015298333,-0.004947756224282784,-0.01679916931607295
-0.022664809876005165,-0.0036180169900035253,-0.017278516679652967
-0.021868161638849415,-0.001958900611498393,-0.01874704503279645
-0.023159926058724523,-0.0005831334419781342,-0.02182877142331563
-0.024082683012238704,0.0018289830450157751,-0.02376231350353919
-0.023080925529939122,0.004711528163170442,-0.023157188479672186
-0.022316033209790476,0.006904583187861135,-0.02326196954527404
-0.02252998820040375,0.007552671377197839,-0.025795588953769766
-0.023543501811218448,0.007107983037712984,-0.029244763936731033
-0.025373998141731136,0.007128037850634428,-0.03212653973605484
-0.02461705298628658,0.007764410838717595,-0.033131578675238416
-0.022111333237262443,0.007739998181932606,-0.03279728480265476
-0.02229328492830973,0.005950173999735853,-0.03272014146205038
-0.0233388454944361,0.005224093456490664,-0.032759588066255674
-0.02350897375436034,0.005801853149023373,-0.03337045927764848
-0.02513581966923084,0.004956412340106908,-0.03473967080935836
-0.025633376935729757,0.0030831720323476475,-0.03510274109430611
-0.025016172003233805,0.000731071338577749,-0.034086442610714585
-0.023591306671733037,0.0010455679557708208,-0.033726082619978115
-0.022354777684086002,0.001526174855825957,-0.0339102371071931
-0.021649428163073026,0.00043033392671532056,-0.03424756141612306
-0.023023947505862452,0.00014897541689151694,-0.033684016671031713
-0.024657141693751328,-0.0007235435077745933,-0.031221545214066282
-0.02397227581241168,-0.0045572692215500865,-0.02934866824944038
-0.023091237380867824,-0.00853731035022065,-0.0284572561213281
-0.023618467821506783,-0.010923395166173577,-0.027137386496178806
-0.024668021069373935,-0.01141720622399589,-0.024001092242542654
-0.02575693179096561,-0.012035603504045866,-0.021527312128455378
-0.026534193239058368,-0.013793551261187531,-0.019232147678849287
-0.025057601305888966,-0.01463787612010492,-0.015329767848015763
-0.021934301912551746,-0.013255669728096109,-0.013479456356435549
-0.019998697098344564,-0.0122305054901517,-0.015432355212396942
-0.020896814021398313,-0.011922428711841349,-0.017928288798430003
-0.022699350665789098,-0.012258880815352313,-0.019148990759276785
-0.023759401301504113,-0.011999545677099377,-0.018996899598278105
-0.02306104033777956,-0.009458268323214725,-0.01825008075684309
-0.02153710011043586,-0.006412901711883023,-0.017826774637796916
-0.020745563233504072,-0.0059724043239839375,-0.019299182895338163
-0.020936149667249992,-0.007981942871992942,-0.020525767467916012
-0.022115504179964773,-0.008223829354392365,-0.020008870706078596
-0.02210963975812774,-0.006101829512772383,-0.018948909200844355
-0.02110019704559818,-0.0026714749310485786,-0.018675333194551058
-0.02228699486295227,0.0006560399583577237,-0.01895900823001284
-0.023759890609653667,0.002680232910279301,-0.019061561033595353
-0.02399529876129236,0.001514562882221071,-0.01940555557666812
-0.024554412448196672,0.0005780729566140508,-0.019578306819312274
-0.026302877813577652,0.0030237256396503653,-0.020186997062410228
-0.02792449049593415,0.006244519227038836,-0.02247464180982206
-0.027306610718369484,0.0067957253122585826,-0.024081371520878747
-0.02669367859198246,0.006546212716784794,-0.022933600121177733
-0.0269423962890869,0.005895945832889993,-0.02101345125993248
-0.02703015888982918,0.0054202914725465234,-0.020794361262232997
-0.027326848794473335,0.005371984570956556,-0.02158120696549304
-0.026364068617112935,0.004200247985863825,-0.022664404241368175
-0.025901033950503916,0.0031892516290099593,-0.023323562345467508
-0.026595695089781657,0.0030899707326170756,-0.02348707857890986
-0.02571466211520601,0.0022225956399779534,-0.024625000150990672
-0.02468170532665681,0.0007797547141308314,-0.025787201593630016
-0.024913615561672486,-4.2828300905739525e-05,-0.025761248252820224
-0.025798151909839362,-0.00013086896899494604,-0.024462122382828966
-0.02617135578475427,-0.001455151618756645,-0.02393033355474472
-0.025033619749592617,-0.0036397375424712664,-0.024810744434944354
-0.02421786484774202,-0.00698320127412444,-0.024779488740023226
-0.025293304133811034,-0.01070650432666298,-0.024928162019932643
-0.027037352992920205,-0.012263814824109431,-0.02554837556090206
-0.02766655779851135,-0.012570391845656559,-0.026282965336577035
-0.02543265509302728,-0.012588277968461625,-0.02602487802505493
-0.023896503989817575,-0.01327012614638079,-0.024955967091955245
-0.02546332143538166,-0.013596861208498012,-0.02303193286934402
-0.026435478503117338,-0.013563755601353478,-0.020346380551927723
-0.025836416170932353,-0.013472792488755658,-0.019004202840733342
-0.024907665647333488,-0.013371056411415339,-0.019530594727257267
-0.023315060388995335,-0.012995266843063291,-0.020302439224906266
-0.022331591026159003,-0.013089342246530578,-0.01991461613215506
-0.02231630787719041,-0.012723665349767543,-0.01918479574669618
-0.022121092115412466,-0.012312401850067545,-0.018973818441736512
-0.021862622816115618,-0.011785476999648381,-0.018489614376449026
-0.02286823291797191,-0.010017301065090578,-0.017261125321965665
-0.02444009078317322,-0.007573404218419455,-0.016659296306897886
-0.02483763819327578,-0.0056634180509718135,-0.01786298889783211
-0.024666092940606177,-0.00487083616462769,-0.019127024643239565
-0.02541214053053409,-0.0042638798731786665,-0.020727506125695072
-0.026102254196302965,-0.00292806043944438,-0.024712167942197993
-0.025541730792610906,-0.0026060379241243936,-0.031248062441591173
-0.024853101422195323,-0.0036250880839361344,-0.036770376027561724
-0.02432894143566955,-0.003115830850219936,-0.03832029324257746
-0.02384571052971296,-0.0008844326657708734,-0.03735259087989107
-0.023501686882809736,0.0007719779091530654,-0.0351301277987659
-0.023520822651335038,0.001964640887308633,-0.03191705764038488
-0.02434397720207926,0.00274439730674203,-0.029438917408697307
-0.02392367969150655,0.0033454161894042045,-0.027872469217982143
-0.02285475238750223,0.0038018713439669227,-0.02794023930619005
-0.022651811377727427,0.0034110141768906033,-0.028324970116955228
-0.024921067961258814,0.002232341330454801,-0.026599920602166094
-0.026991754566552117,0.0017544532511237776,-0.023927435904624872
-0.026139203328057192,0.0038939160731388256,-0.02212660911027342
-0.02445864083711058,0.004167945007793605,-0.023120192054193467
-0.02531450809328817,0.004069503120263107,-0.022661064576823264
-0.025511884814477526,0.004532422281045001,-0.0216985590668628
-0.023700295059825294,0.005200094165047631,-0.02339620368729811
-0.022506608729599975,0.00407974403060507,-0.02808314820867963
-0.022179978259373456,0.000621800722910848,-0.03221377482987009
-0.022739101041224785,-0.0030684457215102157,-0.032128769817063585
-0.022531374270329252,-0.0065530393840163015,-0.02998428317368962
-0.021406174710136838,-0.009634875823394395,-0.029232243832666427
-0.02172360291297082,-0.011667422768368851,-0.029359091058722697
-0.02321032116014976,-0.012846165191149339,-0.028124990421929397
-0.0236737250816077,-0.013763497918262146,-0.027702177249011584
-0.0215919080801541,-0.014587211808247957,-0.02861678512999788
-0.020740706531796604,-0.014364594790094998,-0.027164904167875648
-0.02016090729739517,-0.013706227946386207,-0.023255619453266263
-0.019541121218935587,-0.012235635040269699,-0.020260731616872363
-0.019177559806848876,-0.0095832201623125,-0.018240956705994904
-0.01889433042379096,-0.007595289844175568,-0.015941375750117004
-0.01914421773108188,-0.007821034159860574,-0.016476144082844257
-0.019571290977182798,-0.009089238119486254,-0.018032293155556545
-0.020639714421122335,-0.009564943866280373,-0.01728126881062053
-0.022019452444510534,-0.008703086677996907,-0.018156209989683703
-0.023957025405252352,-0.00906876266526524,-0.021213612853898667
-0.025682016712380573,-0.010130091141036246,-0.022279878976405598
-0.025846991775324568,-0.008947416063165292,-0.01909248749143444
-0.023603201043442823,-0.005179834715818288,-0.015784014976816252
-0.02187233985750936,0.0005497872734849807,-0.010917770850937814
-0.024096812921925448,0.003968130386056146,-0.008351888936886098
-0.025580455258022994,0.005289236469252501,-0.01036434514389839
-0.023731343389954418,0.005427692485682201,-0.016491236237925477
-0.022828711735201068,0.005544185114558786,-0.020308065359131433
-0.024460807253490202,0.006765963462385116,-0.019426099242991768
-0.026606250685290433,0.008482614248350728,-0.018740651285042986
-0.027047797630075365,0.009652744665800128,-0.021494541215361096
-0.02649832094903104,0.010374295015935786,-0.026526988222030923
-0.02583610694273375,0.009534847777104005,-0.030376759241335094
-0.025675570213934407,0.007234642907860689,-0.031053306884132326
-0.02568630407040473,0.0044021112444170285,-0.030122233511065133
-0.02567556111898739,0.0016826933233460295,-0.031045688956510276
-0.027395077268010937,-0.0004182996917734272,-0.034024069464067
-0.027862681236001663,-0.0015353732578660129,-0.035558703530114144
-0.02756611502263695,-0.0016408872625106596,-0.03541722981026396
-0.026275251002516598,-0.0014124314020591555,-0.03576186645659618
-0.025679659302113578,-0.0015461253042303724,-0.03671400554594584
-0.025087825633818284,-0.00247843740908138,-0.03655596083262935
-0.02364413558098022,-0.003547305823303759,-0.03522060433169827
-0.02259948269056622,-0.005186563612369355,-0.03302225741208531
-0.02232310362160206,-0.006656313416897319,-0.030943039746489376
-0.02381064768997021,-0.007668888429179788,-0.02914195829362143
-0.025703358915052377,-0.009252506970369723,-0.028427026336430572
-0.025126235414063558,-0.011353250556567218,-0.028962793294340372
-0.023717477233731188,-0.012390054507704917,-0.029682010790565982
-0.02229767596872989,-0.013231475350039545,-0.02705563929339405
-0.02150182262994349,-0.012557918125821743,-0.023073002012097277
-0.021591526092379354,-0.012185814739495981,-0.02220014539489057
-0.021576892322627828,-0.011706710211001337,-0.02143756501027383
-0.02221048271167092,-0.010850754733837675,-0.020200350263621658
-0.021718342395615764,-0.010003343049902469,-0.0186971046787221
-0.02163678982469719,-0.008912139492167626,-0.0186154884431744
-0.022547370463144034,-0.008304235052492004,-0.01869025618361775
-0.023835862521082163,-0.007588424978166586,-0.01846131453930866
-0.02434105408610776,-0.0061624286900041625,-0.01928892743308097
-0.023035065169096924,-0.005050718755228445,-0.02015830068557989
-0.020807630789931864,-0.004302190063754097,-0.020026593119837344
-0.020626956029445864,-0.002642387471496477,-0.020900159142911434
-0.022323090888676234,0.0008253088026322075,-0.022993150196271017
-0.022275249648373574,0.0024999703782668803,-0.023245187549036928
-0.02165409387089312,0.0020276645500416635,-0.02198602305725217
-0.021576697690761648,0.0011093112561866292,-0.02098129152727779
-0.021121079043950886,0.001326688675362675,-0.02117912663379684
-0.0207680459425319,0.003141857405353221,-0.0217754059121944
-0.021130639652255923,0.004635230652638711,-0.022731790522811934
-0.02183584001613781,0.005816324573970633,-0.024012086214497685
-0.02242424488940742,0.007263739462359808,-0.02364617284911219
-0.02304787267348729,0.00789607202023035,-0.023940974642755464
-0.02432391920592636,0.007881794772401918,-0.02632319592521526
-0.02481037336110603,0.0070787614276923705,-0.028114780434407294
-0.02335593308089301,0.004791956598637626,-0.029557260859292
-0.022513841031468473,0.002924352202171576,-0.029711556635447778
-0.023677252102061175,0.0024673263396834955,-0.029688500944757834
-0.023984435756574385,0.0011499785159685416,-0.028968464903300628
-0.02411318928352557,-0.0007257902439050667,-0.026778892788570374
-0.025991390430135652,-0.001886629775071924,-0.025508257749606855
-0.027471880457596853,-0.002691750978556229,-0.025233064661733806
-0.02607773603813257,-0.003218091251255828,-0.025951792849809863
-0.02501497328921687,-0.003692883183248341,-0.02675578070920892
-0.025307492251158692,-0.0051535848797357175,-0.027283300369163044
-0.025890372853609733,-0.0074815243351622485,-0.02715013215492945
-0.025312225261586718,-0.009630257409298792,-0.027492713343235664
-0.023706363208475523,-0.012458300261641853,-0.02730772212089505
-0.02404222141194623,-0.014655864106316585,-0.02519425834179856
-0.025566539989085868,-0.014946601368137635,-0.021278758140397258
-0.025682937121018767,-0.01526492997072637,-0.018964805349241942
-0.026756228180602193,-0.01684995186224114,-0.018517150238039903
-0.027796715585282072,-0.01749432340147905,-0.019103528757113963
-0.02843638139893301,-0.016384718037443236,-0.01837958006944973
-0.02865631722670514,-0.014141954125079792,-0.015488098142668605
-0.028035768991685472,-0.011580591490201186,-0.01347725628875196
-0.02652763760124799,-0.010622926311043557,-0.013923835467721801
-0.024896882678149268,-0.011263245141890366,-0.01503493513155263
-0.024074941393337213,-0.01058480211213464,-0.014477736840490252
-0.025113056835834868,-0.009239374776370823,-0.015494704712182283
-0.025810788429225795,-0.008889759556041099,-0.018262713638250716
-0.02461727854097262,-0.008629813237348571,-0.021151348846615292
-0.02404269434919115,-0.007067389105941402,-0.02314026096428279
-0.024643557480885647,-0.0043079703573312145,-0.0233345363085391
-0.02448098712193314,-0.001101221300814359,-0.023203752789413556
-0.02373831557633821,0.0009436246841687534,-0.024429309632978402
-0.024338687580893748,0.0020978020529582864,-0.025176410417770967
-0.024337618015124463,0.003701939021993894,-0.02548171323724091
-0.024338636649190448,0.005429442808235763,-0.027352030883776024
-0.02413336005702149,0.006006797320878832,-0.02971323556266725
-0.023432998204953037,0.006375240445777308,-0.029971666663186625
-0.02355188007641118,0.0054278334573609754,-0.03054493572562933
-0.024319286239915527,0.004534881554718595,-0.03227332854294218
-0.024975979613373056,0.005234793206909671,-0.03348750033183023
-0.02582908382464666,0.006323689831333468,-0.0326980953104794
-0.02544734707043972,0.0065438512137916405,-0.03153695797664113
-0.02534298437240068,0.004536238975560991,-0.03107891825493425
-0.026350469852332026,0.0025154909053526353,-0.02971297362819314
-0.027740985387936234,0.0008173945502676361,-0.029148477551643737
-0.028318325348664075,-0.0019499016161717009,-0.030915631214156747
-0.028030441171722487,-0.0038176917769305874,-0.03295198985142633
-0.02817981476255227,-0.005166034043213585,-0.03231910159229301
-0.027975898774457164,-0.005995646461087745,-0.032216234103543684
-0.025837920475169085,-0.006361529813148081,-0.03336458757985383
-0.023556385713163763,-0.006370112714648712,-0.03304288111394271
-0.023027079805615358,-0.005816772500111256,-0.031801748264115304
-0.022270434783422388,-0.006538927209476242,-0.031385872716782615
-0.02021012369368691,-0.008664464075991418,-0.030275316021288745
-0.019634631826193072,-0.010592983016977087,-0.0275568036158802
-0.019790684746112674,-0.011509629075590055,-0.025832534447545186
-0.019159117073286325,-0.01190062266687164,-0.025035280486918055
-0.017773438230506144,-0.01328351572738029,-0.023244268959388137
-0.017209857105626725,-0.014041724170965608,-0.020575344024109654
-0.018270391592523083,-0.014812737390457187,-0.01835613147704862
-0.019633043848443776,-0.01379422246827744,-0.017251095414394513
-0.01919791247928515,-0.011807815099018626,-0.01823563434300013
-0.017815371393226087,-0.010168528206122573,-0.020150475393165834
-0.016883550415514037,-0.008438741133431904,-0.021390225811046548
-0.01754144614096731,-0.006662561645498499,-0.02165271325793583
-0.019142624296364374,-0.006418222255888395,-0.02207338002335746
-0.01986997995118145,-0.006549171757797012,-0.022795364202465862
-0.019198179870727472,-0.00706313039700035,-0.022215477656573057
-0.01853328285505995,-0.007791670213919133,-0.022270556655712426
-0.018468457710696384,-0.007576724783575628,-0.023565615265397355
-0.01862553835962899,-0.004880092546954984,-0.025673942218418233
-0.01868652179837227,-0.0011714566880982602,-0.026567033273749985
-0.019443185010459274,0.0012237726423336426,-0.025185941922245547
-0.020463496184675023,0.0025195697617164114,-0.026883835744229145
-0.020776358724106103,0.002416846882624668,-0.02986806612170767
-0.021060493963886984,0.00230826071856427,-0.030988219805294648
-0.022759779312764294,0.0034065121781168273,-0.030960713047534227
-0.023427168343914673,0.004880457254330395,-0.030703165975864977
-0.023786664314684458,0.005102539944346063,-0.03068003206863068
-0.023900765881990083,0.004256994088791544,-0.03099393507000059
-0.023700798919890076,0.003733510311576538,-0.03031116648344323
-0.024493598175467923,0.0034231377412652364,-0.0284065718005877
-0.024666820536367595,0.0015702019027230563,-0.02684091668925248
-0.02323211265320424,0.000857214217830915,-0.027650779884424992
-0.021831770936842076,0.0008028452498365368,-0.029033100872766227
-0.022552114387508482,-0.00031335073913396627,-0.02866502109100111
